time (s)	magX	magY	magZ
11165.498882	418.483368	-15.947984	1126.058472
11165.502218	425.146118	-22.143190	1117.642334
11165.505545	430.698395	-30.033314	1108.232544
11165.508901	437.068939	-35.527176	1098.764526
11165.512249	442.562836	-41.722385	1091.225098
11165.515551	448.232056	-47.683811	1081.523193
11165.518890	453.375214	-53.060783	1071.879639
11165.522218	457.466370	-58.729984	1063.697266
11165.525547	462.025116	-65.042084	1053.995361
11165.528878	465.707184	-69.600815	1041.371216
11165.532215	469.973724	-74.685562	1034.766724
11165.535549	473.363495	-80.179428	1025.006470
11165.538884	476.928680	-85.030396	1014.661621
11165.542212	480.786102	-89.413788	1003.966187
11165.545549	482.948547	-93.563416	995.199341
11165.548879	486.455322	-98.706604	984.445374
11165.552218	488.676239	-102.973114	975.561707
11165.555569	490.721802	-107.298073	964.457031
11165.558884	493.585602	-111.213913	952.358826
11165.562218	496.800110	-115.012856	945.111633
11165.565545	499.897736	-118.578026	933.831665
11165.568880	501.943329	-122.201637	923.720642
11165.572212	502.293976	-125.766800	913.142029
11165.575538	503.872040	-128.572174	902.797241
11165.578908	506.092926	-132.195801	892.978394
11165.582212	508.372284	-135.410278	883.042725
11165.585571	509.365845	-138.332550	871.879578
11165.588877	509.658112	-141.137939	862.878967
11165.592206	510.943909	-144.469299	851.891357
11165.595546	511.002319	-146.456451	843.708984
11165.598885	511.119232	-149.554062	833.831665
11165.602213	511.469910	-151.891876	823.837585
11165.605541	512.171265	-154.580353	814.895447
11165.608875	512.405029	-157.035065	804.784424
11165.612210	512.755737	-159.314423	794.556458
11165.615568	511.937439	-161.593811	786.023437
11165.618870	511.762115	-163.230286	777.841003
11165.622206	513.573975	-165.801880	768.665100
11165.625542	511.294556	-168.022797	759.021606
11165.628875	511.703705	-170.769714	751.540588
11165.632210	511.294556	-172.113983	743.884277
11165.635537	510.593231	-173.925781	734.942139
11165.638868	509.132050	-175.328461	726.350708
11165.642244	508.839844	-177.549377	719.278809
11165.645536	508.255402	-179.068970	709.869080
11165.648868	506.911133	-180.705444	703.615417
11165.652235	506.443604	-182.341919	694.497986
11165.655535	505.508484	-183.627716	687.250732
11165.658883	503.053772	-185.673279	681.055542
11165.662204	503.053772	-186.316193	674.042114
11165.665536	501.241974	-188.011108	667.554687
11165.668862	499.897736	-189.530670	661.008789
11165.672205	498.787262	-190.758026	654.053772
11165.675533	497.969025	-191.926941	648.501465
11165.678869	497.209229	-192.569855	640.260681
11165.682199	493.994720	-193.914093	636.169495
11165.685531	492.825867	-194.264771	630.266541
11165.688865	492.007599	-196.251892	623.428406
11165.692197	490.429565	-196.953247	617.116333
11165.695555	489.026886	-198.589722	611.739380
11165.698869	488.208649	-198.823486	606.303955
11165.702197	486.689056	-199.583282	601.102295
11165.705530	485.578583	-200.343079	595.199280
11165.708901	484.059021	-200.752197	590.173035
11165.712193	482.188751	-200.927521	585.438904
11165.715532	480.902985	-202.388672	580.003479
11165.718858	480.026306	-202.797791	575.503235
11165.722197	478.974274	-202.680878	571.061401
11165.725530	478.156067	-203.966705	566.619568
11165.728862	476.285797	-204.609589	561.710144
11165.732201	474.473999	-205.427826	556.683838
11165.735524	474.298645	-205.252472	553.177124
11165.738890	472.954437	-206.479828	548.852173
11165.742198	470.967255	-207.590302	544.644043
11165.745528	470.090607	-207.882538	540.728210
11165.748860	468.804810	-208.116302	537.864380
11165.752193	467.519012	-209.402100	534.065491
11165.755522	466.934540	-208.759216	530.091187
11165.758857	465.064301	-210.220337	526.993591
11165.762196	463.603180	-210.921692	523.895996
11165.765522	462.726471	-211.097015	521.265930
11165.768864	461.674469	-211.798370	520.038635
11165.772190	461.089996	-212.265930	515.947388
11165.775527	458.752167	-213.259491	512.557617
11165.778881	457.524841	-213.960846	511.154907
11165.782218	457.641693	-214.720642	508.291077
11165.785527	455.946777	-214.954407	506.713074
11165.788863	454.777924	-215.655762	504.199890
11165.792191	454.018127	-215.889526	501.569824
11165.795519	452.498535	-217.350677	499.699585
11165.798859	452.615417	-217.584442	499.874939
11165.802188	451.271149	-218.402679	497.186462
11165.805525	450.511383	-219.162476	496.017578
11165.808856	449.225586	-219.571594	494.381104
11165.812184	449.693176	-219.746948	493.621277
11165.815520	448.056702	-220.448273	492.978394
11165.818852	447.530670	-220.915833	491.692566
11165.822189	446.303345	-221.324951	491.400391
11165.825538	445.251343	-221.909393	488.887207
11165.828855	445.660400	-221.850983	489.647034
11165.832188	445.426666	-222.493866	489.705444
11165.835509	444.842194	-223.253662	489.296326
11165.838875	444.257751	-224.188782	488.244324
11165.842179	443.439484	-224.773224	486.724731
11165.845515	443.731750	-224.773224	488.594971
11165.848852	442.855042	-225.825256	488.068970
11165.852183	443.556427	-226.234375	487.893616
11165.855515	442.855042	-227.403259	489.354736
11165.858851	443.381073	-227.695496	489.296326
11165.862180	442.445953	-228.747528	488.828735
11165.865513	442.095245	-229.098175	490.056152
11165.868880	441.803040	-229.799530	490.231445
11165.872179	441.277039	-231.085327	491.809448
11165.875513	440.867920	-231.436005	492.861511
11165.878848	440.984772	-232.780243	492.978394
11165.882178	440.517242	-233.949158	495.316223
11165.885511	440.634125	-234.066040	497.361816
11165.888847	440.283447	-235.001160	497.946289
11165.892181	439.874329	-235.877869	498.589111
11165.895516	440.283447	-236.111633	501.453003
11165.898844	439.757446	-237.455872	502.680298
11165.902176	440.049652	-237.748108	504.375244
11165.905510	440.283447	-238.624786	506.946777
11165.908848	440.049652	-239.735229	508.466370
11165.912188	440.926361	-240.378143	510.921082
11165.915504	440.575714	-241.371704	514.252502
11165.918840	440.751038	-242.774414	516.005859
11165.922181	440.984772	-242.891296	518.635925
11165.925505	440.809448	-243.709534	521.733521
11165.928839	441.218567	-245.813538	523.253052
11165.932175	441.393921	-246.281097	527.110474
11165.935506	442.212158	-246.514893	530.149658
11165.938844	441.510834	-247.508453	533.539429
11165.942193	443.088837	-248.385162	536.987732
11165.945507	443.147278	-249.554047	541.371155
11165.948835	443.381073	-250.196960	544.644043
11165.952174	443.790161	-251.073639	549.553467
11165.955507	443.731750	-252.534790	553.410889
11165.958836	444.140839	-253.645233	558.203430
11165.962212	444.374634	-253.528351	562.703735
11165.965508	444.433075	-255.164825	567.203979
11165.968838	444.900604	-256.684387	570.944519
11165.972163	445.485077	-257.794861	576.905945
11165.975505	445.309753	-258.496216	581.113953
11165.978835	445.543549	-259.489777	587.659851
11165.982167	446.595551	-260.483337	591.926392
11165.985527	447.004669	-261.476898	597.420227
11165.988832	446.420197	-262.061371	603.557007
11165.992166	446.653992	-263.756287	607.881958
11165.995507	446.420197	-264.516083	614.720093
11165.998844	446.420197	-265.568085	620.097046
11166.002170	448.290466	-266.620087	626.993591
11166.005498	447.705994	-267.964355	632.253662
11166.008832	447.413788	-268.899475	638.741089
11166.012164	447.881378	-269.483948	644.877869
11166.015521	447.355316	-270.945068	651.306885
11166.018838	447.296906	-272.055511	659.372314
11166.022166	447.296906	-272.581543	665.392151
11166.025504	448.465790	-273.984222	672.405640
11166.028833	447.472260	-274.510223	679.828186
11166.032173	447.764465	-275.386932	686.490967
11166.035493	447.939789	-276.438904	695.666870
11166.038833	447.764465	-277.549377	701.745178
11166.042167	447.238464	-278.309174	709.869080
11166.045492	446.712463	-279.127411	718.577454
11166.048832	447.004669	-280.939209	726.058411
11166.052159	446.946259	-281.465240	733.948547
11166.055495	445.134399	-282.166565	743.767395
11166.058837	445.543549	-283.803040	753.294006
11166.062165	444.549957	-283.919922	762.762146
11166.065492	443.965485	-284.679718	772.522522
11166.068824	443.322632	-284.913513	782.107544
11166.072165	441.978363	-285.381073	791.341858
11166.075492	441.393921	-286.433075	799.816528
11166.078826	440.049652	-286.959076	810.395142
11166.082159	439.114532	-288.537109	820.856873
11166.085496	438.530060	-288.127991	831.201660
11166.088821	436.484497	-288.946228	842.130981
11166.092157	433.737579	-289.355347	851.832886
11166.095523	432.802460	-289.179993	861.710144
11166.098819	430.639984	-289.881348	871.938049
11166.102183	428.594421	-290.348907	883.685608
11166.105494	427.133240	-289.881348	896.134460
11166.108823	425.730560	-290.232025	906.771484
11166.112159	421.990082	-289.822906	918.109924
11166.115495	420.587372	-290.699585	930.324951
11166.118826	417.548218	-289.472229	941.078979
11166.122155	414.158386	-289.998230	953.410889
11166.125485	410.359436	-290.173584	963.814148
11166.128823	406.735809	-288.946228	975.620056
11166.132153	403.988892	-289.589111	986.841553
11166.135492	400.423737	-288.770905	998.998291
11166.138838	396.858551	-287.601990	1011.622437
11166.142157	394.403839	-287.075989	1022.142578
11166.145493	389.728210	-286.316193	1034.357788
11166.148822	384.409698	-285.322601	1046.748047
11166.152153	380.610748	-284.445923	1060.248901
11166.155488	375.292206	-283.277008	1071.821167
11166.158821	370.558167	-281.757477	1083.802490
11166.162185	365.414978	-280.646973	1095.024048
11166.165485	359.278198	-278.952057	1106.654663
11166.168819	353.959656	-277.958496	1117.174683
11166.172150	347.998260	-275.328461	1128.746948
11166.175482	342.212158	-273.633545	1141.663330
11166.178815	335.140259	-271.704865	1152.066650
11166.182189	329.178833	-268.957916	1163.814209
11166.185485	321.405609	-266.210999	1173.808350
11166.188826	314.158386	-264.691406	1185.555786
11166.192155	307.203369	-261.886047	1197.537109
11166.195479	299.663940	-259.314423	1207.706665
11166.198818	292.124512	-256.684387	1219.161865
11166.202150	283.416138	-253.060791	1229.448364
11166.205479	275.350677	-249.846283	1239.384033
11166.209628	257.641754	-243.008179	1261.476318
11166.273840	48.407364	-140.436584	1377.315063
11166.277152	37.127411	-133.423141	1380.120361
11166.280095	24.035650	-127.052605	1381.289307
11166.283637	10.651665	-119.746933	1385.146729
11166.286997	-1.855640	-112.791931	1381.523193
11166.290350	-14.772066	-104.843369	1382.282959
11166.293659	-27.688486	-97.888367	1383.568726
11166.297040	-40.312683	-90.173584	1374.685059
11166.300309	-52.819992	-82.341904	1379.185303
11166.303675	-65.911751	-74.860901	1373.223877
11166.306958	-78.828171	-66.561661	1368.840454
11166.310252	-91.569260	-59.255993	1370.652344
11166.313608	-104.544128	-51.132088	1366.502686
11166.316915	-116.116302	-43.066628	1359.021606
11166.320226	-129.500290	-35.001167	1352.826416
11166.323561	-141.598480	-27.111046	1350.605469
11166.327082	-154.690247	-17.759789	1342.715332
11166.330372	-166.320877	-10.161894	1337.572144
11166.333663	-177.834610	-1.570427	1330.383423
11166.336955	-190.108124	6.904152	1324.246704
11166.340239	-201.621857	14.560493	1315.830566
11166.343526	-212.668030	22.918175	1306.771484
11166.346921	-224.181763	30.866745	1298.355347
11166.350210	-234.760376	39.575104	1288.711792
11166.353521	-245.923431	47.406776	1279.185303
11166.356826	-256.677368	55.881355	1269.424927
11166.360137	-267.022217	63.537697	1259.021606
11166.363461	-277.074799	71.252480	1248.559937
11166.366819	-287.419647	79.610168	1240.845093
11166.370159	-297.180023	86.565170	1228.688477
11166.373486	-306.765045	95.156631	1216.999390
11166.376761	-316.992981	102.637642	1203.673828
11166.380095	-325.935150	109.358864	1192.627686
11166.383478	-333.942139	116.430748	1180.763306
11166.386826	-343.176483	123.619514	1166.677979
11166.390159	-351.241974	130.457642	1154.229126
11166.393477	-359.248993	137.237274	1141.488037
11166.396793	-367.314453	143.958496	1128.337891
11166.400097	-374.912354	150.095276	1114.895386
11166.403493	-381.399750	156.524261	1104.141479
11166.406853	-389.231445	163.187012	1088.594971
11166.410183	-394.374634	168.563995	1075.152588
11166.413458	-400.978973	174.700775	1061.885498
11166.416784	-406.706604	179.610168	1047.449463
11166.420115	-413.427826	185.104034	1032.604370
11166.423469	-418.278778	190.188782	1021.149048
11166.426812	-423.305084	195.098206	1007.355957
11166.430144	-427.922272	200.358246	992.218628
11166.433431	-431.487457	205.267670	979.126831
11166.436743	-436.747528	210.060211	963.872620
11166.440083	-440.955566	214.034485	951.014648
11166.443470	-444.111633	218.008759	937.455261
11166.446831	-447.559906	222.450623	923.486877
11166.450187	-450.832825	226.249573	910.278198
11166.453467	-453.930450	230.223877	894.147278
11166.456792	-456.794312	233.029236	881.347778
11166.460150	-459.190552	237.061951	867.613159
11166.463470	-462.229675	240.977814	854.229187
11166.466848	-464.333710	243.023376	840.611389
11166.470138	-465.385773	246.471649	827.636536
11166.473392	-468.191132	249.627716	813.726501
11166.476776	-468.834015	252.316193	799.816528
11166.480127	-470.996521	254.770905	787.484558
11166.483560	-471.405579	257.459412	775.094116
11166.486835	-471.990051	258.862091	761.768555
11166.490122	-472.749847	261.258331	749.962646
11166.493415	-473.509644	262.894806	736.870850
11166.496748	-474.035645	264.823517	724.714233
11166.500160	-473.392761	266.576843	712.616028
11166.503499	-473.626556	268.213348	700.927002
11166.506817	-473.392761	269.206909	688.887207
11166.510202	-472.749847	270.784912	677.665710
11166.513494	-472.808289	272.070740	667.028687
11166.516756	-472.223846	272.888977	655.398010
11166.520126	-471.405579	274.116333	642.598511
11166.523464	-470.412048	275.285217	633.422546
11166.526827	-469.827606	275.577454	612.616028
11166.530248	-443.118073	234.431915	-1502.638184
11166.533657	-436.864410	237.178833	-1326.016357
11166.537053	-437.390411	240.977814	-1173.941528
11166.540446	-439.085327	243.958527	-1039.049683
11166.543345	-441.773834	272.246063	563.288147
11166.546939	-459.248962	278.149048	554.287598
11166.550333	-458.021637	278.149048	545.579224
11166.553702	-456.151367	277.447693	534.533020
11166.556973	-455.040924	277.739929	524.597290
11166.560278	-452.995331	277.623016	515.538330
11166.563576	-450.365295	277.915253	505.836365
11166.566885	-448.845703	277.739929	497.244873
11166.570177	-446.916992	276.454132	487.542969
11166.573479	-445.222076	276.571045	479.419067
11166.576805	-443.001160	275.928101	471.645813
11166.580067	-440.195801	275.285217	463.638794
11166.583408	-438.384003	275.635895	456.391541
11166.586746	-435.870819	274.408539	448.676819
11166.590128	-433.825256	273.707184	440.786682
11166.593486	-431.195190	274.116333	433.364075
11166.596829	-428.448273	272.713623	426.292236
11166.600157	-426.402710	272.479828	420.447693
11166.603441	-424.181793	271.544708	413.434265
11166.606799	-422.369934	271.077148	407.063721
11166.610117	-420.265961	270.609589	400.985352
11166.613458	-417.577454	269.908264	395.842224
11166.616785	-415.181183	269.440704	389.530151
11166.620122	-413.427826	268.096436	383.685608
11166.623411	-410.622437	267.628876	377.198120
11166.626785	-408.693726	267.102875	371.704285
11166.630101	-406.998810	265.700195	366.502625
11166.633485	-404.076569	264.881927	360.774963
11166.636776	-401.914093	264.180603	354.872009
11166.640116	-399.634735	263.245483	349.261230
11166.643431	-396.946228	263.245483	343.825806
11166.646804	-395.251312	260.615448	337.279968
11166.650138	-392.504395	260.089447	332.545898
11166.653433	-389.640564	259.621887	326.292236
11166.656733	-387.711853	258.102295	321.265930
11166.660062	-385.432526	257.400940	315.070740
11166.663469	-383.270020	256.465820	310.979553
11166.666776	-380.289307	255.238464	306.245483
11166.670115	-378.243713	254.127991	300.868530
11166.673524	-376.315033	252.959106	296.485107
11166.676815	-373.509644	252.433075	290.406799
11166.680078	-371.288727	251.264191	286.081848
11166.683445	-368.950897	250.329071	281.756897
11166.686795	-367.139099	249.452362	278.016357
11166.690149	-365.444183	248.458801	273.574524
11166.693494	-363.164825	247.465210	268.840454
11166.696786	-360.885437	246.822327	265.041504
11166.700070	-358.430756	246.121002	261.008789
11166.703505	-356.326721	245.653442	257.677368
11166.706843	-354.456451	244.250732	254.988907
11166.710128	-352.703094	243.900055	251.306839
11166.713417	-350.189972	242.555817	249.144363
11166.716746	-349.605499	242.614258	246.514297
11166.720058	-347.618347	241.796021	244.118057
11166.723515	-345.981903	240.919342	240.377548
11166.726801	-344.696075	240.159546	238.565750
11166.730133	-342.884277	240.218018	236.111069
11166.733408	-340.897156	238.932220	234.123917
11166.736730	-339.552887	239.165985	232.838089
11166.740127	-338.442444	238.698425	229.915848
11166.743459	-336.864410	237.997101	228.045609
11166.746778	-335.637054	237.938629	226.350693
11166.750152	-333.825256	237.821747	224.831100
11166.753428	-332.773254	236.477509	223.428391
11166.756740	-331.604340	235.951477	221.791916
11166.760155	-329.909393	236.652832	219.512558
11166.763432	-328.565186	236.243713	217.466980
11166.766806	-328.039154	235.600830	216.999420
11166.770067	-325.993561	235.191711	214.544708
11166.773380	-325.116882	234.548798	213.258926
11166.776718	-323.246643	234.841034	211.213318
11166.780108	-322.311523	234.022797	209.985977
11166.783480	-321.668610	233.029236	208.349503
11166.786773	-320.149017	232.444794	206.771484
11166.790060	-318.746338	232.444794	204.316772
11166.793390	-317.343658	232.503204	202.855652
11166.796796	-316.759216	232.094116	201.452957
11166.800123	-314.713623	231.626556	200.459366
11166.803069	-314.888977	231.158997	198.764450
11166.806771	-314.070709	230.691437	196.835770
11166.810080	-312.142029	230.749878	195.257751
11166.813383	-311.089996	229.697845	194.030396
11166.816754	-310.447113	229.756287	193.329041
11166.820090	-309.862640	229.171844	190.699020
11166.823445	-308.401520	229.347168	190.172989
11166.826412	-308.576874	229.288727	189.880768
11166.830022	-306.765045	229.697845	188.068970
11166.833394	-306.239044	228.821167	187.075394
11166.836747	-305.946808	228.470490	187.542953
11166.840088	-304.135010	228.821167	186.432495
11166.843477	-305.187012	228.762695	186.081833
11166.846771	-303.784332	229.464050	185.322037
11166.850077	-303.433655	229.580933	185.497360
11166.853423	-303.667450	230.048523	185.322037
11166.856773	-303.433655	229.931641	184.912903
11166.860088	-303.083008	230.808289	184.796036
11166.863427	-301.972534	230.866760	185.555801
11166.866716	-301.621857	231.158997	185.731155
11166.870080	-301.972534	231.626556	186.081833
11166.873471	-301.388092	232.561676	185.964935
11166.876749	-301.972534	232.561676	187.426056
11166.879672	-301.504974	233.847473	186.607834
11166.883008	-301.446533	233.613678	188.478073
11166.886683	-301.855652	234.373474	188.887207
11166.889598	-301.680328	235.133270	190.231461
11166.892927	-300.803619	236.068390	190.815887
11166.896304	-301.972534	236.419067	191.225021
11166.899614	-301.504974	237.763306	191.283447
11166.902992	-300.920532	238.523102	192.978378
11166.906326	-301.388092	238.932220	193.036835
11166.909601	-301.154297	240.276459	194.147293
11166.912919	-302.381653	240.159546	194.965515
11166.916259	-301.621857	240.685577	195.023956
11166.919615	-302.556976	241.854462	195.725311
11166.922941	-303.083008	242.088257	195.199295
11166.926329	-303.024536	243.315613	196.894211
11166.929692	-301.972534	242.555817	197.244888
11166.932963	-302.615448	244.133850	197.595566
11166.936253	-303.316772	244.952087	198.764450
11166.939620	-304.018127	245.068970	199.582703
11166.942942	-303.842804	245.945648	199.874939
11166.946274	-304.368805	246.647003	201.219162
11166.949654	-303.959656	247.699005	201.628296
11166.953002	-304.193451	248.458801	202.037399
11166.956252	-305.303925	249.452362	202.388077
11166.959583	-305.070129	250.679718	203.498550
11166.962937	-305.011688	252.082428	205.193466
11166.966267	-305.888367	252.140839	207.297485
