time (s)	det(V)
11501.797191	0.197486	
11501.798828	0.203396	
11501.800428	0.209221	
11501.802097	0.218228	
11501.803584	0.224041	
11501.805326	0.231304	
11501.806800	0.238829	
11501.808512	0.247901	
11501.810021	0.252312	
11501.811786	0.260348	
11501.813287	0.267881	
11501.815046	0.275072	
11501.816535	0.280256	
11501.818321	0.288720	
11501.819797	0.295475	
11501.821584	0.301719	
11501.823058	0.307693	
11501.824865	0.317140	
11501.826349	0.321804	
11501.828122	0.327899	
11501.829611	0.335271	
11501.831359	0.341414	
11501.832882	0.346115	
11501.834611	0.352440	
11501.836139	0.358329	
11501.837878	0.363530	
11501.839421	0.368215	
11501.841139	0.376235	
11501.842679	0.381709	
11501.844380	0.386934	
11501.845937	0.392554	
11501.847611	0.397956	
11501.849181	0.401460	
11501.850843	0.405227	
11501.852426	0.411330	
11501.854075	0.415028	
11501.855672	0.418851	
11501.857287	0.422170	
11501.858907	0.424466	
11501.860508	0.425844	
11501.862186	0.429542	
11501.863802	0.434170	
11501.865441	0.436934	
11501.867031	0.439125	
11501.868710	0.442916	
11501.870270	0.446126	
11501.871961	0.448350	
11501.873506	0.451238	
11501.875199	0.455984	
11501.876752	0.456979	
11501.878446	0.459122	
11501.879957	0.461374	
11501.881700	0.461627	
11501.883190	0.462558	
11501.884978	0.464894	
11501.886460	0.465740	
11501.888246	0.466937	
11501.889725	0.468282	
11501.891500	0.470808	
11501.892979	0.470852	
11501.894747	0.470957	
11501.896257	0.470945	
11501.898013	0.471984	
11501.899522	0.470925	
11501.901250	0.470425	
11501.902767	0.470530	
11501.904483	0.469555	
11501.906022	0.469229	
11501.907708	0.469664	
11501.909256	0.468600	
11501.910938	0.467122	
11501.912509	0.466558	
11501.914190	0.465055	
11501.915765	0.462139	
11501.917434	0.460350	
11501.919028	0.458618	
11501.920689	0.456463	
11501.922301	0.453470	
11501.923916	0.452552	
11501.925552	0.450578	
11501.927171	0.447085	
11501.928813	0.444229	
11501.930394	0.441647	
11501.932050	0.436966	
11501.933618	0.432378	
11501.935301	0.429759	
11501.936844	0.426327	
11501.938557	0.423350	
11501.940101	0.421755	
11501.941814	0.421288	
11501.943332	0.417533	
11501.945057	0.413308	
11501.946548	0.409650	
11501.948353	0.404075	
11501.949834	0.398097	
11501.951615	0.393609	
11501.953099	0.388888	
11501.954845	0.383397	
11501.956320	0.378531	
11501.958069	0.375445	
11501.959569	0.370631	
11501.961313	0.365403	
11501.962836	0.359449	
11501.964571	0.354522	
11501.966102	0.347811	
11501.967823	0.342155	
11501.969357	0.338018	
11501.971072	0.332129	
11501.972607	0.326667	
11501.974301	0.322368	
11501.975868	0.317824	
11501.977533	0.311484	
11501.979104	0.306231	
11501.980754	0.302122	
11501.982334	0.295117	
11501.983970	0.290118	
11501.985580	0.285501	
11501.987166	0.279229	
11501.988840	0.274198	
11501.990428	0.270044	
11501.992102	0.265698	
11501.993695	0.259945	
11501.995362	0.255172	
11501.996938	0.251063	
11501.998633	0.245496	
11502.000190	0.240183	
11502.001914	0.235590	
11502.003454	0.230780	
11502.005168	0.226692	
11502.006683	0.222446	
11502.008400	0.219400	
11502.009886	0.213942	
11502.011596	0.210248	
11502.013085	0.206836	
11502.014878	0.202538	
11502.016357	0.197011	
11502.018121	0.193128	
11502.019612	0.189933	
11502.021367	0.185623	
11502.022867	0.182811	
11502.024541	0.180386	
11502.026085	0.177433	
11502.027797	0.172821	
11502.029341	0.170642	
11502.030955	0.167471	
11502.032511	0.162782	
11502.034110	0.159366	
11502.035710	0.157505	
11502.037261	0.153860	
11502.038887	0.149799	
11502.040380	0.148490	
11502.042085	0.146717	
11502.043562	0.142528	
11502.045287	0.140699	
11502.046760	0.139052	
11502.048458	0.135321	
11502.049961	0.131869	
11502.051710	0.129307	
11502.053190	0.127212	
11502.054980	0.124094	
11502.056474	0.122527	
11502.058182	0.121202	
11502.059664	0.118994	
11502.061354	0.115913	
11502.062859	0.114898	
11502.064605	0.111860	
11502.066127	0.107727	
11502.067838	0.106398	
11502.069362	0.104343	
11502.071076	0.101814	
11502.072630	0.099530	
11502.074239	0.099248	
11502.075811	0.096738	
11502.077403	0.094744	
11502.079002	0.093632	
11502.080556	0.091916	
11502.082201	0.088271	
11502.083704	0.085998	
11502.085405	0.085068	
11502.086878	0.083159	
11502.088592	0.080633	
11502.090066	0.079440	
11502.091766	0.079255	
11502.093244	0.076745	
11502.094941	0.074864	
11502.096428	0.074276	
11502.098109	0.072085	
11502.099596	0.069225	
11502.101271	0.068870	
11502.102790	0.066707	
11502.104431	0.064479	
11502.105962	0.063605	
11502.107580	0.062775	
11502.109160	0.063085	
11502.110741	0.059911	
11502.112344	0.059105	
11502.113903	0.058026	
11502.115544	0.056016	
11502.117039	0.053828	
11502.118753	0.053156	
11502.120227	0.051649	
11502.121949	0.050445	
11502.123422	0.050183	
11502.125139	0.050038	
11502.126626	0.048483	
11502.128313	0.047725	
11502.129800	0.046831	
11502.131502	0.045711	
11502.132997	0.043359	
11502.134669	0.043016	
11502.136171	0.041816	
11502.137803	0.040728	
11502.139331	0.039870	
11502.140954	0.040495	
11502.142525	0.040438	
11502.144108	0.038440	
11502.145701	0.037776	
11502.147258	0.037071	
11502.148879	0.035491	
11502.150370	0.034094	
11502.152060	0.034476	
11502.153540	0.032813	
11502.155236	0.032007	
11502.156716	0.031540	
11502.158421	0.032164	
11502.159907	0.031338	
11502.161603	0.030625	
11502.163091	0.030786	
11502.164787	0.029602	
11502.166289	0.028003	
11502.167966	0.027676	
11502.169468	0.027004	
11502.171104	0.026299	
11502.172641	0.025811	
11502.174251	0.027664	
11502.175816	0.027113	
11502.177388	0.025695	
11502.179008	0.025691	
11502.180536	0.025658	
11502.182199	0.023910	
11502.183677	0.023056	
11502.185398	0.023282	
11502.186874	0.023173	
11502.188566	0.021473	
11502.190042	0.022778	
11502.191737	0.023427	
11502.193223	0.022017	
11502.194927	0.021602	
11502.196429	0.021823	
11502.198097	0.021046	
11502.199603	0.019181	
11502.201256	0.018867	
11502.202777	0.018979	
11502.204409	0.018452	
11502.205938	0.017279	
11502.207542	0.019068	
11502.209115	0.019491	
11502.210679	0.018379	
11502.212306	0.018484	
11502.213847	0.018113	
11502.215492	0.016965	
11502.216967	0.015592	
11502.218679	0.016220	
11502.220150	0.015165	
11502.221850	0.014472	
11502.223329	0.014665	
11502.225011	0.016204	
11502.226493	0.015056	
11502.228191	0.014919	
11502.229690	0.014971	
11502.231350	0.013561	
11502.232850	0.012699	
11502.234492	0.011978	
11502.236021	0.012083	
11502.237628	0.010754	
11502.239183	0.009775	
11502.240768	0.011261	
11502.242358	0.011966	
11502.243902	0.010604	
11502.245551	0.010605	
11502.247034	0.009988	
11502.248727	0.008151	
11502.250203	0.007031	
11502.251920	0.007454	
11502.253388	0.006669	
11502.255089	0.005110	
11502.256578	0.006077	
11502.258261	0.006544	
11502.259746	0.002866	
11502.261441	0.002471	
11502.262940	0.002636	
11502.264585	0.002238	
11502.266104	0.000429	
11502.267749	-0.000413	
11502.269281	-0.000075	
11502.270906	-0.000904	
11502.272474	-0.001746	
11502.274032	-0.000655	
11502.275632	-0.000135	
11502.277173	-0.001533	
11502.278829	-0.000820	
11502.280301	-0.000977	
11502.282014	-0.001911	
11502.283488	-0.003474	
11502.285188	-0.002951	
11502.286675	-0.003684	
11502.288385	-0.004421	
11502.289874	-0.004147	
11502.291569	-0.002717	
11502.293056	-0.003293	
11502.294741	-0.003966	
11502.296255	-0.003744	
11502.297908	-0.004175	
11502.299423	-0.005505	
11502.301060	-0.006250	
11502.302605	-0.005207	
11502.304210	-0.006298	
11502.305791	-0.006520	
11502.307373	-0.005404	
11502.308990	-0.004876	
11502.310524	-0.005307	
11502.312201	-0.005416	
11502.313686	-0.005396	
11502.315391	-0.007076	
11502.316866	-0.008333	
11502.318571	-0.007821	
11502.320043	-0.008518	
11502.321727	-0.009114	
11502.323206	-0.008808	
11502.324914	-0.007676	
11502.326404	-0.008643	
11502.328111	-0.009062	
11502.329601	-0.008756	
11502.331254	-0.009126	
11502.332774	-0.009916	
11502.334411	-0.010472	
11502.335956	-0.010238	
11502.337572	-0.011394	
11502.339147	-0.011833	
11502.340728	-0.010947	
11502.342339	-0.010665	
11502.343871	-0.011882	
11502.345524	-0.011829	
11502.347018	-0.011797	
11502.348719	-0.012873	
11502.350192	-0.014581	
11502.351893	-0.013908	
11502.353365	-0.014806	
11502.355053	-0.015878	
11502.356536	-0.015725	
11502.358249	-0.014875	
11502.359743	-0.015721	
11502.361431	-0.015902	
11502.362907	-0.016297	
11502.364582	-0.016599	
11502.366098	-0.018460	
11502.367721	-0.019306	
11502.369265	-0.019310	
11502.370871	-0.020252	
11502.372459	-0.021110	
11502.374015	-0.020542	
11502.375637	-0.020603	
11502.377169	-0.022355	
11502.378841	-0.022698	
11502.380340	-0.022859	
11502.382053	-0.024462	
11502.383530	-0.026053	
11502.385229	-0.026045	
11502.386702	-0.027076	
11502.388407	-0.028100	
11502.389901	-0.028619	
11502.391602	-0.027987	
11502.393084	-0.029344	
11502.394773	-0.030484	
11502.396249	-0.030815	
11502.397926	-0.031524	
11502.399436	-0.034041	
11502.401070	-0.034911	
11502.402608	-0.035197	
11502.404206	-0.036700	
11502.405796	-0.037904	
11502.407347	-0.037606	
11502.408959	-0.037623	
11502.410501	-0.039500	
11502.412167	-0.040281	
11502.413643	-0.040950	
11502.415349	-0.042444	
11502.416830	-0.044874	
11502.418534	-0.044575	
11502.420019	-0.046283	
11502.421730	-0.047770	
11502.423227	-0.048495	
11502.424943	-0.047826	
11502.426437	-0.049969	
11502.428136	-0.050646	
11502.429613	-0.051403	
11502.431290	-0.052906	
11502.432799	-0.055291	
11502.434446	-0.056842	
11502.435990	-0.057248	
11502.437606	-0.059343	
11502.439190	-0.060145	
11502.440777	-0.060036	
11502.442388	-0.060608	
11502.443949	-0.062550	
11502.445573	-0.063654	
11502.447088	-0.064685	
11502.448769	-0.067569	
11502.450255	-0.069229	
11502.451973	-0.069970	
11502.453465	-0.071867	
11502.455191	-0.073471	
11502.456663	-0.074337	
11502.458377	-0.074574	
11502.459857	-0.076576	
11502.461556	-0.078083	
11502.463038	-0.079489	
11502.464732	-0.081418	
11502.466230	-0.084069	
11502.467892	-0.085902	
11502.469419	-0.086748	
11502.471037	-0.090059	
11502.472599	-0.092021	
11502.474218	-0.092166	
11502.475787	-0.093717	
11502.477367	-0.096392	
11502.478983	-0.098108	
11502.480529	-0.100126	
11502.482173	-0.103252	
11502.483670	-0.106422	
11502.485379	-0.107635	
11502.486853	-0.110821	
11502.488592	-0.113238	
11502.490067	-0.115136	
11502.491770	-0.116239	
11502.493249	-0.119494	
11502.494955	-0.122197	
11502.496433	-0.124070	
11502.498131	-0.127575	
11502.499617	-0.131370	
11502.501291	-0.134701	
11502.502807	-0.137408	
11502.504465	-0.140788	
11502.505989	-0.144063	
11502.507625	-0.145739	
11502.509176	-0.148015	
11502.510770	-0.152192	
11502.512372	-0.155169	
11502.513914	-0.157530	
11502.515536	-0.162327	
11502.517037	-0.166404	
11502.518717	-0.169590	
11502.520191	-0.172809	
11502.521928	-0.177301	
11502.523400	-0.180704	
11502.525118	-0.183121	
11502.526598	-0.187150	
11502.528300	-0.191496	
11502.529783	-0.194848	
11502.531494	-0.199758	
11502.532988	-0.204762	
11502.534677	-0.209463	
11502.536168	-0.212597	
11502.537825	-0.217761	
11502.539344	-0.222410	
11502.540987	-0.225157	
11502.542540	-0.229113	
11502.544124	-0.234382	
11502.545725	-0.237858	
11502.547286	-0.243200	
11502.548910	-0.248819	
11502.550433	-0.254104	
11502.552100	-0.257819	
11502.553577	-0.262749	
11502.555296	-0.268486	
11502.556777	-0.272200	
11502.558469	-0.275692	
11502.559954	-0.281118	
11502.561646	-0.286025	
11502.563154	-0.290396	
11502.564858	-0.295157	
11502.566345	-0.301312	
11502.568030	-0.306666	
11502.569525	-0.311174	
11502.571200	-0.316898	
11502.572723	-0.321796	
11502.574359	-0.325140	
11502.575913	-0.329527	
11502.577501	-0.334937	
11502.579099	-0.339134	
11502.580667	-0.343573	
11502.582289	-0.349515	
11502.583824	-0.354510	
11502.585494	-0.358555	
11502.586971	-0.363139	
11502.588667	-0.368803	
11502.590150	-0.372191	
11502.591871	-0.374978	
11502.593347	-0.380364	
11502.595073	-0.384139	
11502.596560	-0.387059	
11502.598277	-0.392413	
11502.599755	-0.397480	
11502.601452	-0.401352	
11502.602928	-0.403684	
11502.604608	-0.405114	
11502.606122	-0.406311	
11502.607772	-0.407519	
11502.609316	-0.410782	
11502.610923	-0.414637	
11502.612508	-0.417074	
11502.614078	-0.420027	
11502.615683	-0.423729	
11502.617244	-0.427439	
11502.618860	-0.429800	
11502.620374	-0.432869	
11502.622049	-0.436172	
11502.623534	-0.437707	
11502.625267	-0.438678	
11502.626743	-0.441349	
11502.628479	-0.443488	
11502.629978	-0.444934	
11502.631933	-0.448370	
11502.633509	-0.451746	
11502.635349	-0.452765	
11502.636932	-0.454312	
11502.649648	-0.461986	
11502.652355	-0.460745	
11502.654465	-0.461349	
11502.656005	-0.461164	
11502.657666	-0.458981	
11502.659236	-0.457410	
11502.660843	-0.456934	
11502.662427	-0.455190	
11502.664013	-0.453168	
11502.665630	-0.453107	
11502.667170	-0.452600	
11502.668830	-0.449434	
11502.670321	-0.447677	
11502.672013	-0.445301	
11502.673487	-0.441305	
11502.675200	-0.436829	
11502.676675	-0.434372	
11502.678393	-0.430899	
11502.679884	-0.427318	
11502.681608	-0.423777	
11502.683101	-0.421433	
11502.684789	-0.416502	
11502.686262	-0.413006	
11502.687944	-0.409505	
11502.689444	-0.406460	
11502.691108	-0.404461	
11502.692643	-0.401968	
11502.694261	-0.397843	
11502.695828	-0.392401	
11502.697408	-0.387132	
11502.699014	-0.383345	
11502.700565	-0.378684	
11502.702190	-0.371844	
11502.703700	-0.367320	
11502.705395	-0.361846	
11502.706872	-0.355965	
11502.708585	-0.348718	
11502.710069	-0.343944	
11502.711778	-0.337491	
11502.713270	-0.331674	
11502.714991	-0.326417	
11502.716484	-0.322131	
11502.718200	-0.315351	
11502.719677	-0.309176	
11502.721373	-0.303097	
11502.722861	-0.296156	
11502.724532	-0.286710	
11502.726056	-0.279721	
11502.727685	-0.273726	
11502.729238	-0.266330	
11502.730854	-0.260018	
11502.732435	-0.255132	
11502.734019	-0.249009	
11502.735625	-0.241174	
11502.737179	-0.235208	
11502.738810	-0.228400	
11502.740309	-0.220996	
11502.742002	-0.213008	
11502.743493	-0.207646	
11502.745204	-0.200588	
11502.746674	-0.193635	
11502.748401	-0.188129	
11502.749888	-0.182662	
11502.751588	-0.175927	
11502.753069	-0.169897	
11502.754772	-0.163580	
11502.756254	-0.157928	
11502.757947	-0.149300	
11502.759463	-0.143439	
11502.761115	-0.137267	
11502.762647	-0.130363	
11502.764268	-0.123909	
11502.765819	-0.119643	
11502.767417	-0.114137	
11502.769013	-0.107333	
11502.770569	-0.101939	
11502.772196	-0.095433	
11502.773717	-0.088069	
11502.775406	-0.080081	
11502.776883	-0.074635	
11502.778600	-0.067493	
11502.780076	-0.061273	
11502.781787	-0.055770	
11502.783262	-0.051154	
11502.784958	-0.043782	
11502.786443	-0.037788	
11502.788147	-0.031205	
11502.789634	-0.024607	
11502.791321	-0.016268	
11502.792832	-0.010029	
11502.794467	-0.004449	
11502.795987	0.002858	
11502.797614	0.010983	
11502.799160	0.016292	
11502.800749	0.021920	
11502.802351	0.029534	
11502.803902	0.035093	
11502.805502	0.043713	
11502.807007	0.050864	
11502.808825	0.057937	
11502.810315	0.064145	
11502.812018	0.071235	
11502.813494	0.077269	
11502.815197	0.082349	
11502.816678	0.086683	
11502.818394	0.093890	
11502.819882	0.099078	
11502.821587	0.104690	
11502.823090	0.111240	
11502.824814	0.119103	
11502.826306	0.125170	
11502.828001	0.131829	
11502.829491	0.137928	
11502.831161	0.144510	
11502.832684	0.148441	
11502.834323	0.154661	
11502.835890	0.161304	
11502.837475	0.166871	
11502.839071	0.172720	
11502.840622	0.179194	
11502.842235	0.186453	
11502.843775	0.191021	
11502.845445	0.197132	
11502.846928	0.203795	
11502.848630	0.208391	
11502.850120	0.213277	
11502.851835	0.221515	
11502.853319	0.226309	
11502.855040	0.231091	
11502.856529	0.237761	
11502.858236	0.245129	
11502.859722	0.250068	
11502.861426	0.255893	
11502.862911	0.261359	
11502.864603	0.266918	
11502.866109	0.270363	
11502.867742	0.275132	
11502.869289	0.281304	
11502.870897	0.285493	
11502.872478	0.290037	
11502.874063	0.296796	
11502.875656	0.302331	
11502.877226	0.306843	
11502.878855	0.312487	
11502.880362	0.317131	
11502.882049	0.320713	
11502.883542	0.323601	
11502.885262	0.328310	
11502.886736	0.332592	
11502.888446	0.337072	
11502.889923	0.341567	
11502.891631	0.348065	
11502.893112	0.351771	
11502.894820	0.355606	
11502.896307	0.359836	
11502.897982	0.364267	
11502.899489	0.366325	
11502.901120	0.371059	
11502.902658	0.375494	
11502.904296	0.378374	
11502.905853	0.382471	
11502.907457	0.388546	
11502.909044	0.393227	
11502.910612	0.396050	
11502.912211	0.400570	
11502.913756	0.403221	
11502.915428	0.406129	
11502.916902	0.407632	
11502.918629	0.411096	
11502.920104	0.413992	
11502.921822	0.415640	
11502.923313	0.418371	
11502.925000	0.421598	
11502.926486	0.422428	
11502.928182	0.423733	
11502.929673	0.424913	
11502.931364	0.426226	
11502.932872	0.426041	
11502.934543	0.428382	
11502.936049	0.430702	
11502.937688	0.432027	
11502.939229	0.432458	
11502.940867	0.435423	
11502.942422	0.436475	
11502.943990	0.436068	
11502.945596	0.437671	
11502.947141	0.438464	
11502.948799	0.437691	
11502.950293	0.436450	
11502.952004	0.437695	
11502.953476	0.437083	
11502.955193	0.436112	
11502.956675	0.436329	
11502.958381	0.438315	
11502.959865	0.436394	
11502.961557	0.435298	
11502.963055	0.435069	
11502.964769	0.432603	
11502.966260	0.429940	
11502.967958	0.427632	
11502.969454	0.426561	
11502.971119	0.424341	
11502.972644	0.423394	
11502.974268	0.423318	
11502.975833	0.422214	
11502.977420	0.420498	
11502.979009	0.419286	
11502.980579	0.416188	
11502.982197	0.411451	
11502.983724	0.407692	
11502.985393	0.404590	
11502.986876	0.401851	
11502.988593	0.397702	
11502.990071	0.395470	
11502.991771	0.392816	
11502.993254	0.389069	
11502.994967	0.384936	
11502.996455	0.382253	
11502.998156	0.378426	
11502.999639	0.372896	
11503.001334	0.369121	
11503.002823	0.365234	
11503.004490	0.360343	
11503.006015	0.356665	
11503.007665	0.354361	
11503.009234	0.351255	
11503.010827	0.345849	
11503.012407	0.342812	
11503.013976	0.338776	
11503.015597	0.333124	
11503.017140	0.328258	
11503.018792	0.324946	
11503.020279	0.320689	
11503.021984	0.315810	
11503.023469	0.313192	
11503.025172	0.310259	
11503.026658	0.306046	
11503.028387	0.300917	
11503.029868	0.298327	
11503.031569	0.293803	
11503.033053	0.288534	
11503.034761	0.285010	
11503.036243	0.282556	
11503.037934	0.276881	
11503.039434	0.273851	
11503.041081	0.271656	
11503.042623	0.268832	
11503.044247	0.263788	
11503.045808	0.261690	
11503.047405	0.257540	
11503.048990	0.252243	
11503.050559	0.248561	
11503.052181	0.245713	
11503.053716	0.242084	
11503.055378	0.237129	
11503.056860	0.234809	
11503.058596	0.232899	
11503.060073	0.228444	
11503.061781	0.224915	
11503.063264	0.222087	
11503.064975	0.217116	
11503.066455	0.211706	
11503.068152	0.208802	
11503.069638	0.205728	
11503.071319	0.200789	
11503.072808	0.198203	
11503.074462	0.195907	
11503.075986	0.193039	
11503.077616	0.187710	
11503.102046	0.151946	
11503.103522	0.147841	
11503.105242	0.142218	
11503.106718	0.138383	
11503.108416	0.135680	
11503.109900	0.132743	
11503.111585	0.129750	
11503.113068	0.127720	
11503.114761	0.123003	
11503.116258	0.119297	
11503.117944	0.115482	
11503.119440	0.112791	
11503.121089	0.109085	
11503.122620	0.105641	
11503.124248	0.105338	
11503.125803	0.103099	
11503.127393	0.099912	
11503.128980	0.097584	
11503.130524	0.095147	
11503.132153	0.091558	
11503.133663	0.088488	
11503.135347	0.087433	
11503.136823	0.084423	
11503.138553	0.082248	
11503.140030	0.081733	
11503.141729	0.080488	
11503.143209	0.078957	
11503.144921	0.076073	
11503.146417	0.075392	
11503.148128	0.073503	
11503.149614	0.069785	
11503.151300	0.069015	
11503.152792	0.067609	
11503.154453	0.065096	
11503.155967	0.063637	
11503.157598	0.064697	
11503.159146	0.063851	
11503.160720	0.061962	
11503.162322	0.062030	
11503.163879	0.061885	
11503.165498	0.059444	
11503.167013	0.057099	
11503.168696	0.057627	
11503.170170	0.055794	
11503.171889	0.054997	
11503.173366	0.055117	
11503.175066	0.056092	
11503.176559	0.054465	
11503.178261	0.054332	
11503.179753	0.053905	
11503.181457	0.053188	
11503.182933	0.050731	
11503.184623	0.051077	
11503.186114	0.051000	
11503.187775	0.050465	
11503.189297	0.049131	
11503.190932	0.049784	
11503.192502	0.050352	
11503.194101	0.048938	
