time (s)	det(V)
3745.976249	-0.298167	
3745.977884	-0.285268	
3745.979485	-0.273506	
3745.981158	-0.258234	
3745.982746	-0.246943	
3745.984426	-0.234789	
3745.986016	-0.221907	
3745.987667	-0.206970	
3745.989251	-0.196379	
3745.990926	-0.182913	
3745.992494	-0.169865	
3745.994201	-0.157381	
3745.995750	-0.146428	
3745.997454	-0.131745	
3745.998974	-0.119910	
3746.000703	-0.108715	
3746.002183	-0.096848	
3746.003950	-0.083216	
3746.005440	-0.071155	
3746.007233	-0.058579	
3746.008717	-0.044645	
3746.010499	-0.032096	
3746.011979	-0.021989	
3746.013739	-0.008611	
3746.015235	0.006652	
3746.016983	0.017001	
3746.018508	0.028320	
3746.020248	0.044413	
3746.021772	0.056317	
3746.023473	0.067218	
3746.025007	0.083057	
3746.026699	0.096717	
3746.028262	0.107928	
3746.029963	0.122084	
3746.031538	0.135582	
3746.033215	0.147079	
3746.034801	0.159660	
3746.036472	0.173352	
3746.038051	0.186895	
3746.039713	0.196499	
3746.041316	0.212278	
3746.042965	0.227166	
3746.044593	0.241342	
3746.046197	0.251767	
3746.047861	0.267889	
3746.049471	0.278028	
3746.051110	0.290935	
3746.052706	0.303447	
3746.054381	0.319326	
3746.055965	0.329240	
3746.057654	0.343250	
3746.059213	0.356149	
3746.060904	0.370272	
3746.062451	0.381302	
3746.064164	0.396686	
3746.065712	0.408638	
3746.067413	0.415821	
3746.068919	0.426419	
3746.070697	0.441578	
3746.072178	0.453743	
3746.073955	0.466001	
3746.075442	0.479005	
3746.077223	0.491783	
3746.078706	0.503501	
3746.080489	0.517834	
3746.081981	0.530531	
3746.083766	0.541403	
3746.085256	0.552147	
3746.087017	0.564570	
3746.088517	0.575467	
3746.090244	0.585268	
3746.091767	0.597252	
3746.093481	0.607959	
3746.095021	0.616141	
3746.096737	0.626292	
3746.098282	0.636560	
3746.099973	0.643014	
3746.101540	0.649403	
3746.103226	0.658253	
3746.104802	0.665254	
3746.106465	0.668787	
3746.108071	0.675828	
3746.109720	0.681545	
3746.111326	0.685778	
3746.112978	0.688622	
3746.114592	0.694226	
3746.116233	0.694939	
3746.117856	0.697267	
3746.119459	0.698923	
3746.121143	0.701312	
3746.122723	0.698592	
3746.124401	0.700518	
3746.125985	0.700413	
3746.127647	0.699209	
3746.129212	0.696892	
3746.130906	0.696449	
3746.132460	0.692776	
3746.134165	0.688018	
3746.135715	0.684449	
3746.137442	0.680876	
3746.138951	0.675510	
3746.140721	0.669601	
3746.142216	0.664904	
3746.143984	0.658156	
3746.145475	0.650740	
3746.147257	0.643203	
3746.148739	0.636665	
3746.150516	0.625946	
3746.151997	0.616616	
3746.153752	0.608660	
3746.155245	0.599395	
3746.157000	0.588100	
3746.158510	0.580575	
3746.160274	0.570601	
3746.161790	0.559257	
3746.163527	0.548368	
3746.165059	0.540255	
3746.166772	0.525991	
3746.168304	0.516512	
3746.170018	0.504931	
3746.171580	0.494562	
3746.173289	0.481422	
3746.174869	0.472853	
3746.176554	0.462146	
3746.178123	0.450275	
3746.179792	0.437984	
3746.181398	0.430073	
3746.183053	0.417255	
3746.184649	0.411132	
3746.186277	0.401363	
3746.187893	0.392428	
3746.189532	0.379187	
3746.191188	0.369104	
3746.192802	0.360588	
3746.194450	0.350062	
3746.196058	0.338477	
3746.197748	0.329409	
3746.199335	0.318943	
3746.201019	0.308675	
3746.202594	0.299744	
3746.204268	0.290395	
3746.205842	0.280650	
3746.207549	0.271881	
3746.209100	0.264404	
3746.210819	0.255945	
3746.212367	0.246841	
3746.214083	0.239159	
3746.215578	0.231859	
3746.217326	0.222224	
3746.218813	0.214960	
3746.220595	0.208922	
3746.222086	0.201236	
3746.223886	0.193461	
3746.225376	0.187757	
3746.227160	0.181852	
3746.228639	0.174859	
3746.230411	0.168143	
3746.231912	0.164333	
3746.233669	0.156864	
3746.235190	0.150817	
3746.236953	0.145806	
3746.238465	0.141315	
3746.240196	0.134865	
3746.241725	0.131522	
3746.243419	0.126575	
3746.244964	0.121463	
3746.246664	0.117161	
3746.248227	0.114176	
3746.249913	0.107255	
3746.251475	0.103275	
3746.253163	0.099565	
3746.254736	0.095783	
3746.256390	0.091057	
3746.257993	0.088995	
3746.259632	0.085075	
3746.261261	0.081627	
3746.262874	0.076930	
3746.264495	0.077707	
3746.266110	0.072374	
3746.267767	0.068096	
3746.269370	0.065836	
3746.271046	0.063443	
3746.272615	0.060926	
3746.274303	0.059411	
3746.275862	0.056998	
3746.277568	0.054585	
3746.279119	0.051959	
3746.280816	0.050972	
3746.282351	0.048929	
3746.284065	0.044732	
3746.285581	0.043451	
3746.287332	0.041956	
3746.288817	0.040014	
3746.290596	0.037602	
3746.292078	0.037376	
3746.293847	0.035894	
3746.295339	0.033509	
3746.297101	0.032453	
3746.298600	0.031624	
3746.300368	0.028743	
3746.301863	0.026842	
3746.303598	0.026878	
3746.305117	0.025605	
3746.306829	0.023059	
3746.308359	0.022898	
3746.310059	0.022213	
3746.311602	0.021335	
3746.313290	0.019269	
3746.314855	0.020598	
3746.316536	0.016723	
3746.318101	0.016590	
3746.319760	0.015563	
3746.321330	0.015599	
3746.322966	0.012876	
3746.324580	0.013069	
3746.326189	0.013883	
3746.327815	0.011998	
3746.329400	0.011425	
3746.331074	0.011426	
3746.332654	0.010664	
3746.334310	0.008775	
3746.335889	0.007437	
3746.337588	0.008960	
3746.339127	0.007591	
3746.340823	0.007784	
3746.342369	0.007566	
3746.344080	0.006571	
3746.345592	0.005399	
3746.347350	0.005613	
3746.348839	0.006052	
3746.350607	0.003735	
3746.352099	0.003312	
3746.353618	0.004324	
3746.355168	0.002463	
3746.356655	0.001790	
3746.358253	0.002305	
3746.359753	0.003063	
3746.361343	0.000960	
3746.362850	0.000432	
3746.364437	0.003184	
3746.365940	0.000307	
3746.367566	-0.000764	
3746.369054	-0.001107	
3746.370610	-0.001102	
3746.372105	-0.000575	
3746.373642	-0.003004	
3746.375187	-0.001340	
3746.376751	-0.001018	
3746.378300	-0.002541	
3746.379824	-0.003342	
3746.381453	-0.003729	
3746.382949	-0.006239	
3746.384581	-0.007085	
3746.386103	-0.006718	
3746.387716	-0.006291	
3746.389210	-0.007858	
3746.390863	-0.007020	
3746.392356	-0.006468	
3746.393992	-0.006037	
3746.395480	-0.007709	
3746.397105	-0.006948	
3746.398589	-0.005840	
3746.400181	-0.007741	
3746.401703	-0.008277	
3746.403246	-0.007274	
3746.404855	-0.007169	
3746.406353	-0.009381	
3746.407982	-0.007580	
3746.409497	-0.007592	
3746.411151	-0.007459	
3746.412636	-0.008285	
3746.414272	-0.006585	
3746.415747	-0.007568	
3746.417377	-0.009187	
3746.418860	-0.009091	
3746.420490	-0.008172	
3746.421973	-0.008023	
3746.423574	-0.010202	
3746.425104	-0.007713	
3746.426658	-0.007858	
3746.428264	-0.009034	
3746.429748	-0.009437	
3746.431394	-0.007056	
3746.432893	-0.008889	
3746.434503	-0.009260	
3746.436032	-0.010025	
3746.437674	-0.009050	
3746.439149	-0.009844	
3746.440777	-0.009707	
3746.442255	-0.009079	
3746.443889	-0.008615	
3746.445376	-0.010062	
3746.446985	-0.009062	
3746.448503	-0.008043	
3746.450165	-0.009324	
3746.451714	-0.009671	
3746.453320	-0.008917	
3746.454882	-0.008644	
3746.456482	-0.010629	
3746.458056	-0.008905	
3746.459633	-0.008229	
3746.461246	-0.008482	
3746.462782	-0.009510	
3746.464447	-0.007447	
3746.465938	-0.008841	
3746.467641	-0.009546	
3746.469112	-0.009784	
3746.470827	-0.009171	
3746.472319	-0.009340	
3746.474024	-0.009949	
3746.475510	-0.008253	
3746.477222	-0.008253	
3746.478703	-0.009320	
3746.480385	-0.008668	
3746.481881	-0.008128	
3746.483534	-0.009546	
3746.485064	-0.010303	
3746.486691	-0.009079	
3746.488239	-0.008519	
3746.489835	-0.010766	
3746.491413	-0.008805	
3746.492990	-0.008462	
3746.494592	-0.008619	
3746.496121	-0.009598	
3746.497790	-0.007322	
3746.499270	-0.008503	
3746.500998	-0.009957	
3746.502475	-0.009494	
3746.504196	-0.008624	
3746.505666	-0.008893	
3746.507370	-0.009312	
3746.508852	-0.007931	
3746.510561	-0.007709	
3746.512050	-0.009143	
3746.513768	-0.008019	
3746.515266	-0.007302	
3746.516929	-0.008668	
3746.518434	-0.008954	
3746.520068	-0.008136	
3746.521619	-0.007544	
3746.523318	-0.009973	
3746.524869	-0.008180	
3746.526541	-0.007350	
3746.528105	-0.008696	
3746.529784	-0.008197	
3746.531370	-0.006130	
3746.533011	-0.008390	
3746.534615	-0.008913	
3746.536244	-0.008793	
3746.537838	-0.007487	
3746.539459	-0.009973	
3746.541118	-0.008325	
3746.542693	-0.007600	
3746.544356	-0.007201	
3746.545928	-0.008547	
3746.547604	-0.007318	
3746.549165	-0.007922	
3746.550862	-0.008631	
3746.552407	-0.008728	
3746.554099	-0.008519	
3746.555616	-0.008273	
3746.557350	-0.008563	
3746.558835	-0.007250	
3746.560598	-0.006984	
3746.562088	-0.008253	
3746.563856	-0.007209	
3746.565342	-0.006964	
3746.567102	-0.008233	
3746.568586	-0.008495	
3746.570335	-0.007443	
3746.571840	-0.007230	
3746.573575	-0.008970	
3746.575094	-0.007004	
3746.576803	-0.006786	
3746.578337	-0.007898	
3746.580038	-0.007346	
3746.581585	-0.005715	
3746.583279	-0.008031	
3746.584852	-0.008088	
3746.586542	-0.007955	
3746.588111	-0.006621	
3746.589775	-0.009627	
3746.591364	-0.007508	
3746.593018	-0.007064	
3746.594631	-0.007451	
3746.596260	-0.008192	
3746.597880	-0.005679	
3746.599490	-0.007681	
3746.601138	-0.008656	
3746.602737	-0.008434	
3746.604381	-0.008184	
3746.605988	-0.008704	
3746.607667	-0.008031	
3746.609237	-0.007040	
3746.610920	-0.006915	
3746.612480	-0.008225	
3746.614191	-0.007024	
3746.615741	-0.007193	
3746.617433	-0.008156	
3746.618990	-0.008563	
3746.620702	-0.007721	
3746.622213	-0.007520	
3746.623967	-0.008591	
3746.625449	-0.006976	
3746.627222	-0.007278	
3746.628709	-0.008269	
3746.630481	-0.007427	
3746.631964	-0.006492	
3746.633719	-0.008660	
3746.635217	-0.009123	
3746.636972	-0.007818	
3746.638474	-0.007685	
3746.640200	-0.009888	
3746.641721	-0.008200	
3746.643419	-0.007286	
3746.644952	-0.008837	
3746.646628	-0.008974	
3746.648180	-0.007032	
3746.649855	-0.009340	
3746.651432	-0.009892	
3746.653104	-0.009401	
3746.654678	-0.009071	
3746.656325	-0.011117	
3746.657911	-0.009425	
3746.659538	-0.009248	
3746.661155	-0.009638	
3746.662760	-0.010654	
3746.664431	-0.008466	
3746.666027	-0.010202	
3746.667681	-0.010948	
3746.669278	-0.010799	
3746.670936	-0.010710	
3746.672490	-0.011407	
3746.674193	-0.011359	
3746.675732	-0.010464	
3746.677417	-0.010819	
3746.678944	-0.012285	
3746.680680	-0.010775	
3746.682169	-0.011089	
3746.683910	-0.012756	
3746.685401	-0.013316	
3746.687192	-0.012104	
3746.688673	-0.013107	
3746.690431	-0.014295	
3746.691917	-0.012744	
3746.693675	-0.013518	
3746.695175	-0.014654	
3746.696941	-0.014497	
3746.698454	-0.013755	
3746.700185	-0.015375	
3746.701707	-0.016958	
3746.703421	-0.016285	
3746.704961	-0.016406	
3746.706640	-0.018545	
3746.708180	-0.017695	
3746.709855	-0.017691	
3746.711426	-0.018388	
3746.713100	-0.019846	
3746.714694	-0.017856	
3746.716316	-0.020165	
3746.717929	-0.021502	
3746.719551	-0.022098	
3746.721154	-0.021413	
3746.722762	-0.023798	
3746.724400	-0.023295	
3746.726006	-0.023347	
3746.727677	-0.023895	
3746.729259	-0.025679	
3746.730945	-0.024700	
3746.732523	-0.026364	
3746.734215	-0.028225	
3746.735777	-0.028966	
3746.737448	-0.029103	
3746.739011	-0.030199	
3746.740722	-0.031678	
3746.742225	-0.031730	
3746.743978	-0.032350	
3746.745463	-0.034300	
3746.747238	-0.035118	
3746.748723	-0.035392	
3746.750479	-0.038852	
3746.751975	-0.040121	
3746.753757	-0.040467	
3746.755233	-0.041353	
3746.757015	-0.044334	
3746.758516	-0.044806	
3746.760239	-0.045176	
3746.761755	-0.048230	
3746.763473	-0.049591	
3746.765003	-0.049696	
3746.766686	-0.053366	
3746.768233	-0.055320	
3746.769916	-0.056778	
3746.771466	-0.058164	
3746.773127	-0.062124	
3746.774701	-0.063131	
3746.776346	-0.064105	
3746.777931	-0.066619	
3746.779562	-0.069838	
3746.781193	-0.069713	
3746.782805	-0.073532	
3746.784451	-0.077053	
3746.786059	-0.079244	
3746.787702	-0.081536	
3746.789297	-0.085363	
3746.790989	-0.087687	
3746.792556	-0.089746	
3746.794251	-0.093311	
3746.795799	-0.097355	
3746.797508	-0.099398	
3746.799067	-0.103140	
3746.800743	-0.108135	
3746.802272	-0.112163	
3746.803993	-0.115551	
3746.805496	-0.120107	
3746.807280	-0.125062	
3746.808762	-0.127922	
3746.810537	-0.132510	
3746.812020	-0.138484	
3746.813782	-0.142690	
3746.815265	-0.146235	
3746.817032	-0.153425	
3746.818540	-0.158892	
3746.820312	-0.163754	
3746.821814	-0.169188	
3746.823559	-0.176923	
3746.825085	-0.180818	
3746.826804	-0.186180	
3746.828329	-0.193560	
3746.830029	-0.200033	
3746.831570	-0.204637	
3746.833254	-0.213637	
3746.834817	-0.220996	
3746.836499	-0.227937	
3746.838068	-0.234169	
3746.839740	-0.243724	
3746.841330	-0.249847	
3746.842964	-0.257219	
3746.844569	-0.265654	
3746.846186	-0.274702	
3746.847807	-0.281317	
3746.849432	-0.291238	
3746.851097	-0.301124	
3746.852702	-0.310353	
3746.854363	-0.319541	
3746.855956	-0.329624	
3746.857632	-0.339647	
3746.859204	-0.347796	
3746.860899	-0.358209	
3746.862453	-0.368876	
3746.864148	-0.378878	
3746.865693	-0.389006	
3746.867391	-0.401683	
3746.868924	-0.410722	
3746.870670	-0.416958	
3746.872174	-0.426139	
3746.873936	-0.438655	
3746.875419	-0.447320	
3746.877203	-0.459147	
3746.878687	-0.470619	
3746.880468	-0.481625	
3746.881961	-0.491132	
3746.883730	-0.504534	
3746.885215	-0.515588	
3746.886983	-0.525981	
3746.888481	-0.536414	
3746.890230	-0.549309	
3746.891737	-0.557510	
3746.893453	-0.568020	
3746.894977	-0.578921	
3746.896706	-0.589040	
3746.898257	-0.596678	
3746.899975	-0.608577	
3746.901532	-0.617875	
3746.903237	-0.627208	
3746.904808	-0.635849	
3746.906476	-0.646250	
3746.908077	-0.652168	
3746.909571	-0.658311	
3746.911138	-0.665232	
3746.912653	-0.672616	
3746.914252	-0.677748	
3746.915753	-0.683303	
3746.917289	-0.689679	
3746.918809	-0.694526	
3746.920380	-0.697519	
3746.921927	-0.700637	
3746.923414	-0.705539	
3746.924998	-0.705918	
3746.926539	-0.707303	
3746.928165	-0.709455	
3746.929653	-0.710345	
3746.931316	-0.708363	
3746.932805	-0.709998	
3746.934457	-0.709036	
3746.935986	-0.707887	
3746.937630	-0.705446	
3746.939110	-0.703545	
3746.940742	-0.700169	
3746.942232	-0.695722	
3746.943867	-0.691541	
3746.945362	-0.688874	
3746.946984	-0.683726	
3746.948516	-0.677039	
3746.950081	-0.673167	
3746.951621	-0.667081	
3746.953163	-0.660059	
3746.954798	-0.652889	
3746.956291	-0.647584	
3746.957933	-0.637481	
3746.959451	-0.629263	
3746.961104	-0.619498	
3746.962612	-0.611578	
3746.964260	-0.600919	
3746.965738	-0.592101	
3746.967396	-0.583429	
3746.968878	-0.573483	
3746.970515	-0.561321	
3746.971995	-0.550646	
3746.973620	-0.540640	
3746.975118	-0.527826	
3746.976684	-0.514439	
3746.978246	-0.503660	
3746.979762	-0.491969	
3746.981413	-0.476396	
3746.982901	-0.466519	
3746.984521	-0.454361	
3746.986048	-0.441362	
3746.987695	-0.426856	
3746.989174	-0.416463	
3746.990834	-0.407834	
3746.992307	-0.394778	
3746.993947	-0.380788	
3746.995423	-0.370177	
3746.997070	-0.355514	
3746.998578	-0.342325	
3747.000163	-0.332392	
3747.001704	-0.320468	
3747.003339	-0.306332	
3747.004891	-0.294074	
3747.006492	-0.283983	
3747.008077	-0.269707	
3747.009676	-0.257453	
3747.011264	-0.245936	
3747.012803	-0.235172	
3747.014447	-0.220686	
3747.015928	-0.210543	
3747.017641	-0.198172	
3747.019114	-0.186772	
3747.020860	-0.172483	
3747.022330	-0.161534	
3747.024039	-0.148906	
3747.025521	-0.135516	
3747.027226	-0.121972	
3747.028713	-0.111555	
3747.030415	-0.097492	
3747.031901	-0.084227	
3747.033604	-0.073101	
3747.035119	-0.061398	
3747.036749	-0.047029	
3747.038290	-0.034497	
3747.039920	-0.024036	
3747.041462	-0.009191	
3747.043062	0.005355	
3747.044646	0.017500	
3747.046204	0.029992	
3747.047802	0.046774	
3747.049324	0.057453	
3747.051007	0.069578	
3747.052479	0.080725	
3747.054202	0.093913	
3747.055676	0.105450	
3747.057386	0.117072	
3747.058865	0.129471	
3747.060576	0.142459	
3747.062068	0.152389	
3747.063788	0.165255	
3747.065281	0.177566	
3747.066986	0.188108	
3747.068486	0.199697	
3747.070169	0.213655	
3747.071686	0.226429	
3747.073344	0.237382	
3747.074882	0.251803	
3747.076517	0.265258	
3747.078101	0.277730	
3747.079794	0.290250	
3747.081371	0.304248	
3747.083009	0.315592	
3747.084614	0.328249	
3747.086270	0.342662	
3747.087878	0.356644	
3747.089515	0.368137	
3747.091120	0.382257	
3747.092741	0.397278	
3747.094418	0.409343	
3747.096012	0.415974	
3747.097698	0.430032	
3747.099304	0.442037	
3747.100955	0.454758	
3747.102552	0.466863	
3747.104224	0.480640	
3747.105809	0.492540	
3747.107515	0.505410	
3747.109072	0.517588	
3747.110763	0.529959	
3747.112328	0.538793	
3747.114051	0.551236	
3747.115591	0.561388	
3747.117317	0.570750	
3747.118828	0.579979	
3747.120603	0.590690	
3747.122086	0.600221	
3747.123866	0.607456	
3747.125353	0.617071	
3747.127127	0.626183	
3747.128610	0.632677	
3747.130397	0.639948	
3747.131888	0.647840	
3747.133653	0.652960	
3747.135151	0.657560	
3747.136911	0.665089	
3747.138417	0.670414	
3747.140164	0.673653	
3747.141684	0.680002	
3747.143409	0.682926	
3747.144934	0.685102	
3747.146669	0.687708	
3747.148212	0.691204	
3747.149917	0.690020	
3747.151463	0.689682	
3747.153155	0.689742	
3747.154730	0.689476	
3747.156398	0.687124	
3747.157982	0.685835	
3747.159630	0.683812	
3747.161229	0.680562	
3747.162874	0.675724	
3747.164485	0.674249	
3747.166113	0.667639	
3747.167764	0.662181	
3747.169355	0.657177	
3747.171016	0.650784	
3747.172593	0.643497	
3747.174274	0.637511	
3747.175868	0.630945	
3747.177531	0.623275	
3747.179107	0.614251	
3747.180809	0.606018	
3747.182369	0.597417	
3747.184079	0.586718	
3747.185618	0.577167	
3747.187343	0.569263	
3747.188875	0.558475	
3747.190617	0.548433	
3747.192110	0.539595	
3747.193891	0.529375	
3747.195388	0.518059	
3747.197170	0.507376	
3747.198651	0.498341	
3747.200427	0.484797	
3747.201908	0.474799	
3747.203667	0.464354	
3747.205157	0.454142	
3747.206905	0.442021	
3747.208424	0.433460	
3747.210176	0.422302	
3747.211687	0.414137	
3747.213406	0.407377	
3747.214938	0.398918	
3747.216646	0.386083	
3747.218193	0.375658	
3747.219883	0.366304	
3747.221441	0.357096	
3747.223124	0.344020	
3747.224707	0.337143	
3747.226369	0.327576	
3747.227962	0.317493	
3747.229641	0.307572	
3747.231239	0.301146	
3747.232891	0.289283	
3747.234505	0.280807	
3747.236131	0.273049	
3747.237759	0.265145	
3747.239385	0.254708	
3747.241029	0.248154	
3747.242622	0.241684	
3747.244290	0.233660	
3747.245881	0.224745	
3747.247580	0.219674	
3747.249150	0.211774	
3747.250851	0.202847	
3747.252418	0.196144	
3747.254129	0.190061	
3747.255669	0.183930	
3747.257361	0.176647	
3747.258902	0.172796	
3747.260655	0.165654	
3747.262160	0.160643	
3747.263923	0.154318	
3747.265408	0.149899	
3747.267187	0.143051	
3747.268672	0.137689	
3747.270453	0.133544	
3747.271945	0.129814	
3747.273858	0.123058	
3747.275560	0.120053	
3747.277256	0.115848	
3747.278789	0.110708	
3747.280623	0.107598	
3747.341830	0.024046	
3747.344684	0.021609	
3747.346274	0.020091	
3747.347831	0.021496	
3747.349402	0.019172	
3747.350918	0.018181	
3747.352488	0.016292	
3747.353973	0.016997	
3747.355611	0.015414	
3747.357103	0.013605	
3747.358679	0.015526	
3747.360197	0.014821	
3747.361804	0.013323	
3747.363308	0.012900	
3747.364872	0.013395	
3747.366389	0.011607	
3747.367947	0.009915	
3747.369463	0.010056	
3747.370976	0.008976	
3747.372569	0.008042	
3747.374080	0.007957	
3747.375660	0.009226	
3747.377152	0.008138	
3747.378774	0.006878	
3747.380264	0.006741	
3747.381846	0.007373	
3747.383364	0.004666	
3747.384956	0.004199	
3747.386451	0.004791	
3747.388014	0.004416	
3747.389535	0.001661	
3747.391091	0.003063	
3747.392618	0.003965	
3747.394132	0.004014	
3747.395686	0.002704	
3747.397204	0.002064	
3747.398782	0.003317	
3747.400275	0.000489	
3747.401857	-0.000136	
3747.403371	0.001737	
3747.404962	0.001544	
3747.406459	-0.001521	
3747.408043	-0.000377	
3747.409555	0.001419	
3747.411106	0.000670	
3747.412622	-0.001147	
3747.414179	-0.000148	
3747.415712	-0.000466	
3747.417247	-0.001082	
3747.418775	-0.001892	
3747.420310	-0.000506	
3747.421875	-0.004672	
3747.423360	-0.006537	
3747.424919	-0.004720	
3747.426433	-0.004901	
3747.428017	-0.005884	
3747.429510	-0.006170	
3747.431073	-0.004031	
3747.432597	-0.005804	
3747.434183	-0.006919	
3747.435663	-0.007528	
3747.437229	-0.006376	
3747.438722	-0.006364	
3747.440273	-0.008068	
3747.441800	-0.006053	
3747.443300	-0.006420	
3747.444879	-0.007306	
3747.446412	-0.007363	
3747.448012	-0.005538	
3747.449495	-0.007431	
3747.451075	-0.008023	
3747.452566	-0.008333	
3747.454143	-0.007536	
3747.455617	-0.007939	
3747.457188	-0.008656	
3747.458677	-0.007145	
