time (s)	magX	magY	magZ
3388.123792	234.178833	467.705444	819.869019
3388.127107	231.315018	462.620697	836.409119
3388.130440	229.620102	458.763275	856.572754
3388.133763	226.347168	453.620117	872.879028
3388.137103	223.015793	446.489777	891.990662
3388.140470	219.450623	440.353027	908.121521
3388.143339	216.236115	433.222687	926.882446
3388.146673	212.729385	426.501465	945.701904
3388.150005	207.644653	416.039764	962.768005
3388.153341	204.021027	408.734100	980.827515
3388.156679	199.111633	397.980133	1001.166565
3388.160037	194.436005	390.382263	1015.953308
3388.163338	190.052597	379.102295	1032.259521
3388.166678	185.493866	368.056122	1049.559326
3388.170007	179.883118	355.841034	1068.437134
3388.173339	173.863235	342.398590	1084.217407
3388.176674	167.843369	329.540619	1101.926392
3388.180006	162.933960	317.676208	1120.336670
3388.183339	156.972534	303.006409	1137.402710
3388.186676	150.660431	288.161316	1150.845093
3388.190003	144.640564	274.017548	1166.625366
3388.193339	138.211578	258.237274	1182.756348
3388.196673	131.490356	242.398590	1194.036255
3388.200002	124.535370	226.910583	1206.251343
3388.203338	117.638809	210.838120	1221.973145
3388.206667	109.982475	195.233185	1236.292236
3388.210004	102.267677	178.108704	1246.753906
3388.213336	94.143776	160.107544	1259.670410
3388.216672	86.955002	142.807709	1271.359497
3388.220032	78.480423	124.923431	1284.100586
3388.223337	69.304504	106.746933	1288.951538
3388.226667	60.303917	88.979538	1304.205811
3388.230007	51.946236	71.329041	1306.601929
3388.233356	43.004089	52.860317	1316.888428
3388.236665	33.126823	34.099358	1322.148437
3388.239997	23.717125	15.805962	1327.817749
3388.243327	13.606079	-2.838106	1331.908813
3388.246662	4.313267	-22.826416	1335.883057
3388.250002	-6.849795	-40.652252	1337.227417
3388.253337	-16.434834	-59.530098	1343.539551
3388.256665	-27.071888	-77.823494	1341.084717
3388.260000	-37.182938	-96.993576	1344.883667
3388.263348	-47.352425	-114.936295	1344.766846
3388.266662	-57.463470	-133.171249	1343.071899
3388.269994	-67.516075	-151.756866	1340.266602
3388.273329	-77.217995	-169.758041	1339.156128
3388.276660	-87.036819	-186.765640	1333.194580
3388.279996	-96.680298	-204.182358	1324.661621
3388.283330	-105.213326	-221.189941	1318.934082
3388.286683	-114.038567	-237.963760	1311.745239
3388.289998	-122.396263	-254.036255	1306.076050
3388.293322	-131.572189	-269.699585	1294.153198
3388.296663	-140.397430	-285.538269	1285.853882
3388.299990	-147.060196	-301.201630	1276.035034
3388.303327	-154.833435	-315.170074	1262.183594
3388.306673	-161.905319	-331.125641	1252.540039
3388.309995	-169.503220	-343.516083	1238.630127
3388.313328	-176.633545	-357.659851	1227.057861
3388.316658	-181.718292	-371.336060	1213.206299
3388.319990	-187.913498	-383.025146	1196.140259
3388.323324	-193.232025	-393.136169	1184.626587
3388.326655	-198.141434	-404.533020	1168.846313
3388.329994	-202.758621	-414.293427	1154.001221
3388.333321	-207.200470	-425.047333	1137.110474
3388.336657	-211.817642	-433.521942	1119.869141
3388.339996	-216.610168	-441.295135	1100.991211
3388.343325	-219.707764	-449.945068	1083.574585
3388.346657	-223.565170	-456.783203	1065.222656
3388.350011	-226.779663	-464.322601	1048.332031
3388.353319	-231.046173	-470.167145	1030.506226
3388.356651	-233.909988	-475.719452	1010.576233
3388.360072	-237.592041	-483.551147	993.510132
3388.363317	-240.397430	-488.226776	977.905273
3388.366661	-241.332550	-492.727081	958.092285
3388.369987	-243.378128	-496.526001	937.636475
3388.373320	-246.709534	-501.727661	921.447083
3388.376648	-247.995316	-503.948578	900.289856
3388.379981	-249.105789	-504.533051	882.931641
3388.383325	-250.800705	-508.565765	865.164185
3388.386688	-252.086487	-510.552887	846.403198
3388.389988	-254.833435	-510.903595	826.940918
3388.393315	-256.879028	-512.481567	808.998230
3388.396655	-258.340149	-513.475159	790.938599
3388.399987	-257.288147	-511.195801	772.762085
3388.403318	-259.158386	-512.656921	755.988281
3388.406652	-258.924591	-512.247803	738.513123
3388.409981	-258.398621	-511.371124	721.505493
3388.413314	-257.989471	-509.734680	704.264099
3388.416652	-259.450623	-511.020447	687.198120
3388.419981	-258.573944	-508.390411	671.593201
3388.423313	-258.164825	-507.981293	654.994751
3388.426645	-257.638824	-505.994171	640.266479
3388.429978	-255.651657	-504.240784	623.142029
3388.433339	-255.593216	-501.961426	607.244873
3388.436659	-253.781403	-500.441833	594.153076
3388.439983	-253.898300	-498.805359	578.489746
3388.443316	-252.495621	-497.461121	566.683777
3388.446645	-250.216232	-493.603729	548.741028
3388.449980	-249.690247	-488.168335	534.655701
3388.453316	-247.410858	-485.772064	523.142029
3388.456647	-244.839279	-482.732910	508.413788
3388.459976	-244.663956	-479.752197	496.023346
3388.463309	-242.618347	-477.472809	484.801849
3388.466646	-240.222092	-474.024567	473.346588
3388.469977	-238.176514	-469.933350	459.144348
3388.473329	-236.423157	-467.478638	448.390411
3388.476645	-234.611343	-465.959106	439.331390
3388.479976	-231.455292	-462.043274	426.414948
3388.483309	-229.351257	-458.302734	415.544128
3388.486642	-227.714798	-454.854492	406.543518
3388.489975	-225.376984	-449.711273	396.198730
3388.493310	-224.324966	-447.139679	386.905884
3388.496636	-222.104019	-442.171844	376.619507
3388.499976	-218.772644	-440.301605	367.911163
3388.503363	-218.363510	-437.379303	360.488586
3388.507918	-215.265930	-429.430756	342.078308
3388.511266	-214.213913	-427.209839	334.714203
3388.514627	-211.233200	-422.826416	327.233215
3388.517978	-210.298080	-419.144379	319.985962
3388.521310	-208.778488	-415.754547	312.621857
3388.524685	-206.791351	-411.663361	304.088837
3388.527580	-206.849777	-408.507324	298.653412
3388.531254	-205.388657	-404.766815	290.704865
3388.534210	-202.115723	-401.493866	285.912323
3388.537511	-201.823486	-399.506714	278.372864
3388.540888	-200.128571	-395.240204	271.125671
3388.544238	-198.433670	-392.025726	266.099365
3388.547586	-197.147858	-389.161896	259.085907
3388.550817	-195.219162	-385.129150	254.936310
3388.554151	-194.284042	-382.265350	248.974854
3388.557481	-193.115128	-378.349518	243.656342
3388.560843	-190.485092	-375.485687	237.461121
3388.564175	-188.965515	-373.381653	233.019287
3388.567551	-186.919937	-368.706024	228.343658
3388.570888	-186.043243	-365.374634	223.960266
3388.574149	-183.588547	-362.686157	218.758621
3388.577481	-181.893631	-360.874359	214.433655
3388.580821	-180.549393	-357.133820	210.693161
3388.584182	-178.562241	-354.036255	205.725296
3388.587493	-177.218002	-352.224426	202.335480
3388.590941	-175.523087	-349.945068	197.309174
3388.594266	-173.945068	-346.789032	193.334900
3388.597564	-172.367035	-343.749847	191.055527
3388.600813	-171.373474	-342.405609	187.782578
3388.603756	-170.146118	-339.308014	184.100525
3388.607058	-168.334305	-337.087097	181.353592
3388.610391	-166.580948	-335.041504	177.905319
3388.613724	-165.119812	-334.106354	175.625961
3388.617056	-163.950897	-330.482758	171.885452
3388.620420	-162.781998	-328.437164	170.482758
3388.623742	-161.320862	-326.040924	166.566925
3388.627072	-160.677963	-324.755096	164.871994
3388.630412	-159.216827	-323.177094	161.949738
3388.633723	-158.223251	-320.371704	159.670364
3388.637052	-158.457031	-319.904144	156.689651
3388.640385	-156.820572	-317.449432	156.163651
3388.643723	-155.651657	-315.871429	153.124481
3388.647080	-155.300995	-314.702515	150.728226
3388.650379	-154.599655	-312.598480	149.150208
3388.653713	-154.015182	-311.078888	147.689072
3388.657073	-152.846283	-309.033325	145.877258
3388.660397	-152.670944	-306.929291	144.123917
3388.663756	-152.495621	-306.111053	143.305664
3388.667058	-150.917603	-305.877258	142.019867
3388.670390	-151.268265	-303.714783	139.565170
3388.673713	-150.508469	-302.954987	138.513153
3388.676621	-150.040909	-301.669220	136.876678
3388.679955	-149.807129	-301.026306	136.584457
3388.683289	-148.988892	-299.682068	134.480408
3388.686622	-148.755112	-297.519592	134.012848
3388.689962	-147.761536	-297.227356	132.493286
3388.693287	-148.170654	-295.064880	130.739914
3388.696618	-146.943298	-295.415558	130.097015
3388.699951	-146.592636	-292.785522	128.402100
3388.703288	-146.008179	-292.843964	127.934540
3388.706618	-145.891296	-292.025726	126.765625
3388.709953	-144.780838	-290.915253	126.414963
3388.713289	-144.780838	-290.155487	125.655167
3388.716629	-143.845703	-290.506134	124.895386
3388.719987	-143.962585	-289.921692	124.252487
3388.723279	-143.611923	-288.694336	123.025131
3388.726620	-142.910583	-288.285217	122.849792
3388.729950	-142.735245	-287.876099	121.856216
3388.733305	-141.507889	-287.583862	121.563995
3388.736621	-142.092346	-288.226776	121.037994
3388.739950	-141.566330	-287.817657	121.505554
3388.743282	-140.864990	-287.233185	120.511978
3388.746614	-141.157211	-287.700775	120.570435
3388.749952	-139.988312	-287.116302	120.628876
3388.753281	-140.397430	-288.051422	120.628876
3388.756610	-139.988312	-286.940979	120.511978
3388.759945	-139.871414	-286.181183	120.161301
3388.763285	-139.462296	-287.525421	120.044418
3388.766609	-139.579193	-288.285217	120.862656
3388.769951	-140.689651	-288.402130	121.388657
3388.773284	-140.455872	-289.103455	122.148453
3388.776611	-139.871414	-288.986542	121.680893
3388.779948	-140.631210	-288.811218	122.031555
3388.783301	-141.098770	-288.635895	123.843369
3388.786610	-141.040314	-289.512573	123.142029
3388.789943	-140.923431	-290.213898	123.609589
3388.793278	-141.683228	-290.739929	124.544708
3388.796613	-141.741669	-291.090607	125.655167
3388.799940	-142.676804	-292.201050	126.999420
3388.803277	-142.618347	-292.376404	126.707199
3388.806646	-143.495026	-292.668610	127.642319
3388.809944	-143.495026	-293.837524	128.869659
3388.813273	-144.137924	-293.662170	129.921692
3388.816609	-144.956161	-295.824677	131.675034
3388.819968	-145.248398	-297.052002	132.551727
3388.823272	-145.832840	-298.104034	132.727066
3388.826606	-146.417297	-298.104034	133.895966
3388.829943	-146.592636	-299.272919	134.714203
3388.833268	-146.767975	-299.974274	137.344238
3388.836603	-148.462891	-301.902985	137.110458
3388.839938	-148.579773	-302.370544	138.630035
3388.843270	-149.047333	-303.013428	141.026306
3388.846633	-149.865570	-304.416107	141.318527
3388.849963	-150.742249	-306.637054	142.604324
3388.853266	-151.151382	-309.150208	145.935715
3388.856602	-151.034485	-310.260681	146.461731
3388.859942	-151.151382	-310.611328	148.039749
3388.863282	-152.495621	-312.656921	150.377563
3388.866601	-152.378723	-314.234955	152.072479
3388.869941	-153.021622	-316.572784	153.124481
3388.873271	-154.132080	-317.507904	155.403870
3388.876607	-153.898300	-318.852142	158.150787
3388.879932	-155.300995	-322.183533	161.189941
3388.883264	-155.768555	-322.826416	162.300400
3388.886600	-156.762131	-326.040924	164.930450
3388.889929	-156.879013	-328.028046	168.378723
3388.893282	-158.106369	-329.664520	171.417892
3388.896597	-158.457031	-332.236115	173.989487
3388.899937	-160.093521	-334.223267	177.379303
3388.903266	-160.736404	-335.742859	180.301575
3388.906602	-162.372879	-338.723541	184.100525
3388.909970	-162.372879	-341.645813	186.204559
3388.913271	-163.541794	-343.925201	190.178833
3388.916600	-164.710693	-346.087646	194.153122
3388.919930	-166.405609	-349.652832	197.250732
3388.923299	-167.165390	-351.815308	201.108139
3388.926596	-168.626526	-355.672699	205.257736
3388.929930	-169.912338	-357.309174	209.290466
3388.933263	-171.665680	-359.647003	213.030975
3388.936622	-172.600815	-362.452393	217.414383
3388.939932	-174.295731	-365.491516	221.797791
3388.943269	-176.458206	-369.758057	227.525436
3388.946599	-177.451782	-370.576263	232.668625
3388.949929	-178.854477	-374.375214	236.350662
3388.953267	-181.367615	-379.284637	242.896545
3388.956593	-181.952072	-380.979553	247.689056
3388.959929	-184.289886	-382.908234	252.247803
3388.963258	-185.166565	-386.356506	257.858582
3388.966605	-187.212158	-389.454132	263.294006
3388.969927	-188.907074	-394.480438	269.313843
3388.973265	-189.900650	-395.707794	275.450623
3388.976594	-191.829346	-401.376984	281.879608
3388.979927	-193.290466	-403.714783	287.957916
3388.983259	-194.634720	-405.994171	294.562256
3388.986593	-195.160721	-410.494476	300.348328
3388.989925	-197.206314	-413.416718	309.056702
3388.993256	-198.667450	-417.858551	315.135010
3388.996592	-199.135010	-421.540619	323.609589
3388.999924	-201.239044	-426.274719	330.389252
3389.003259	-202.992401	-429.606110	340.324951
3389.006587	-203.401505	-431.768555	347.864410
3389.009933	-204.278198	-436.210388	356.338989
3389.013250	-205.505554	-438.898895	364.872009
3389.016595	-206.440689	-443.983643	373.580383
3389.019919	-208.018707	-446.438354	383.106964
3389.023255	-209.830521	-450.471069	392.867310
3389.026590	-210.882523	-455.146698	402.803040
3389.029924	-211.350082	-458.945648	413.264740
3389.033254	-212.811234	-461.926361	423.025116
3389.036587	-213.629456	-466.192841	433.077759
3389.039917	-215.908829	-470.342499	443.948578
3389.043274	-217.428391	-473.323181	454.702515
3389.046617	-217.253067	-475.894836	469.196960
3389.051184	-221.285797	-484.018707	495.029816
3389.054546	-222.396255	-487.408539	506.485138
3389.057946	-223.272934	-490.681488	520.395020
3389.061306	-224.032730	-493.837524	532.317932
3389.064221	-225.084747	-497.461121	545.351196
3389.067519	-226.253647	-501.902985	560.079407
3389.071230	-227.831665	-503.831665	575.158386
3389.074549	-229.877258	-506.987762	589.594360
3389.077883	-229.351257	-508.507294	605.199219
3389.080790	-231.221497	-509.851532	617.414307
3389.084138	-231.922867	-513.767334	634.188171
3389.087520	-233.325546	-515.812927	650.961975
3389.090886	-232.331955	-514.644043	665.631775
3389.094106	-233.500885	-517.274109	682.230225
3389.097454	-233.033310	-519.611877	700.698975
3389.100770	-233.267090	-518.852112	713.849182
3389.104126	-232.974854	-519.436584	730.155396
3389.107466	-233.617783	-520.605469	750.435974
3389.110846	-231.572174	-522.417297	768.203369
3389.114192	-231.279938	-520.663879	783.574463
3389.117504	-230.111038	-521.598999	801.458740
3389.120776	-230.461716	-523.001770	817.881897
3389.124094	-227.890121	-522.534180	837.051941
3389.127420	-226.662766	-520.196350	856.046692
3389.130789	-223.331375	-517.332520	871.359436
3389.134120	-221.402695	-517.157166	894.328430
3389.137504	-218.480408	-514.877808	909.407349
3389.140386	-216.610168	-512.949158	932.142517
3389.143699	-213.512558	-508.565765	947.864319
3389.147003	-208.953827	-505.409698	966.566833
3389.150332	-205.096436	-501.961426	987.373474
3389.153687	-201.239044	-496.935120	1003.212158
3389.156996	-198.199890	-493.779083	1026.765747
3389.160331	-193.524246	-484.953827	1044.942139
3389.163671	-187.971939	-477.706604	1057.683228
3389.166996	-184.523666	-472.972534	1076.853394
3389.170357	-178.912918	-465.140869	1096.900024
3389.173696	-174.061951	-457.952057	1113.089478
3389.177065	-168.568100	-449.068390	1131.441284
3389.180355	-163.541794	-442.288727	1148.974854
3389.183684	-157.521912	-432.002350	1166.216309
3389.186999	-152.495621	-422.417297	1182.756348
3389.190328	-145.482178	-411.254242	1193.510254
3389.193661	-139.111633	-400.032715	1212.212769
3389.197003	-132.974869	-390.155487	1227.291626
3389.200325	-126.721207	-376.303925	1235.824707
3389.203659	-119.707771	-363.621277	1250.436035
3389.207024	-112.518997	-350.120392	1261.482178
3389.210350	-105.096428	-335.625946	1276.911743
3389.213683	-97.849205	-322.767975	1287.198120
3389.216628	-91.127991	-307.747528	1301.225098
3389.219941	-82.594971	-291.616608	1304.556396
3389.223234	-74.763290	-277.414398	1316.479248
3389.226587	-66.873169	-259.997650	1326.298096
3389.229899	-57.346581	-243.457642	1326.122681
3389.233234	-49.164230	-227.911179	1333.077759
3389.236569	-40.046753	-211.429581	1337.928711
3389.239905	-30.929281	-192.551727	1338.162476
3389.243235	-22.045588	-175.894806	1340.500366
3389.246563	-13.045003	-158.127411	1345.760376
3389.249897	-1.414377	-139.483337	1346.637085
3389.253229	7.936879	-121.774399	1345.351318
3389.256565	17.463472	-102.253647	1342.195190
3389.259903	26.697836	-84.369370	1342.429077
3389.263228	36.575104	-65.783752	1338.980713
3389.266563	47.504379	-47.022793	1335.064941
3389.269902	56.972534	-29.080070	1332.668701
3389.273232	67.200470	-9.091759	1328.460571
3389.276566	77.019295	8.909410	1321.739380
3389.279895	87.422562	27.144363	1313.264771
3389.283230	97.358269	45.613094	1308.822998
3389.286580	106.008186	64.023376	1293.393433
3389.289904	116.060791	81.732315	1287.490479
3389.293229	124.769150	99.149033	1280.067749
3389.296562	134.120392	117.851547	1267.151367
3389.299897	142.653427	134.976044	1256.105225
3389.303222	151.946228	152.100525	1241.902954
3389.306598	158.842789	168.815903	1226.765747
3389.309891	167.142029	185.122147	1214.083008
3389.313230	173.863235	201.662186	1203.095337
3389.316556	182.045578	218.377548	1188.717773
3389.319894	187.364120	233.164230	1171.417847
3389.323219	194.202225	248.184692	1157.215698
3389.326558	200.222092	262.737579	1140.734131
3389.329888	207.410873	276.998230	1127.759277
3389.333225	211.209824	291.609589	1108.998291
3389.336553	215.710129	305.461121	1092.224487
3389.339887	221.788437	319.254242	1077.496216
3389.343216	226.288727	331.586212	1061.657471
3389.346556	230.087662	344.268860	1044.007080
3389.349907	232.600815	355.081238	1023.609558
3389.353220	235.406189	365.893646	1006.835754
3389.356558	239.555817	376.063110	990.880127
3389.359893	242.828751	385.648163	972.586731
3389.363219	246.510818	395.408539	953.884216
3389.366553	250.718887	405.052002	935.590820
3389.369883	251.011108	413.234344	917.881897
3389.373219	253.991837	419.955597	898.419556
3389.376551	257.030945	427.670349	879.717041
3389.379878	259.076569	432.229095	865.514832
3389.383216	260.654572	439.651642	848.448853
3389.386547	262.349487	445.087067	828.577454
3389.389891	264.102844	449.704285	810.400879
3389.393247	265.622437	455.782562	794.737549
3389.396551	266.615997	457.945068	778.080627
3389.399891	268.369354	461.627106	761.131470
3389.403217	270.940948	467.705444	746.403198
3389.406548	271.700745	470.627686	731.733459
3389.409884	271.057861	472.322601	717.472778
3389.413215	272.518982	474.134399	699.004089
3389.416545	274.097015	475.127991	685.678528
3389.419883	273.044983	477.056702	668.437134
3389.423214	273.337219	478.926941	653.592041
3389.426549	273.337219	479.394501	637.928650
3389.429880	273.161865	479.745148	621.096436
3389.433247	272.109863	480.037415	608.121521
3389.436582	272.051422	479.745148	594.620667
3389.439877	270.648743	480.037415	579.424866
3389.443220	270.648743	479.686737	566.099304
3389.446547	269.187622	477.290436	551.604919
3389.449878	268.603149	478.400970	538.220886
3389.453212	267.843353	478.225586	526.531860
3389.456542	265.680878	476.063110	513.849182
3389.459875	263.518402	473.842194	503.095306
3389.463212	262.817078	473.491547	490.295746
3389.466547	261.472809	472.381073	478.606628
3389.469882	258.199860	469.458771	463.819977
3389.473208	258.141418	469.049652	453.066040
3389.476545	255.394516	466.068939	443.831665
3389.479892	252.764481	463.263580	432.201050
3389.483208	252.063126	460.341309	422.265320
3389.486542	249.374634	458.178802	410.751617
3389.489873	248.205734	457.360626	400.348328
3389.493212	245.400360	454.789032	390.763306
3389.496539	242.536530	450.814728	382.171844
3389.499874	240.958511	449.645813	372.995911
3389.503205	239.380478	445.613098	363.995331
3389.506586	236.750443	443.625946	355.228516
3389.509895	235.113968	440.820557	345.935699
3389.513208	234.354187	437.956726	337.811829
3389.516533	232.133255	435.209808	330.681488
3389.519867	230.263000	431.936890	322.148468
3389.523207	228.392746	429.891296	314.901215
3389.526535	226.756287	424.981903	306.192871
3389.529872	223.892456	421.825836	299.179413
3389.533207	223.249557	418.552887	292.984222
3389.536537	221.379303	416.624176	286.905884
3389.539896	219.333725	412.474579	279.834015
3389.543196	218.047928	410.370544	273.872589
3389.546541	215.826996	405.519592	268.144958
3389.549869	214.833435	403.415558	261.482178
