time (s)	magX	magY	magZ
5351.903628	240.315613	394.064301	287.782593
5351.906947	241.776733	396.226746	293.451782
5351.910284	244.523666	398.798370	298.302765
5351.913611	245.692566	400.142578	304.030396
5351.916944	248.381073	402.071289	309.465790
5351.920279	250.485092	404.350677	317.005249
5351.923613	251.011108	407.214508	323.258911
5351.926940	254.167160	408.091187	328.109863
5351.930279	255.803604	411.481018	335.064880
5351.933609	257.673859	412.123871	342.312103
5351.936944	261.355927	415.572174	349.325562
5351.940279	262.933929	417.325562	357.858582
5351.943611	264.804199	419.897125	366.040894
5351.946965	267.492676	421.299805	371.885468
5351.950278	268.895386	422.819397	380.476929
5351.953613	271.642303	424.689636	389.769745
5351.956934	273.571014	427.670349	398.478058
5351.960278	275.616577	427.728790	406.660461
5351.963606	277.720612	430.651062	416.362366
5351.966942	279.766205	431.995300	424.603149
5351.970311	281.753326	433.982483	433.779083
5351.973607	284.617187	435.618927	443.656342
5351.976939	286.078308	435.677399	452.949188
5351.980273	288.591461	439.593231	463.995361
5351.983607	290.169464	439.359436	474.983063
5351.986939	292.857971	440.411438	487.198151
5351.990302	294.436005	442.983063	495.322021
5351.993605	297.124481	443.099945	507.069550
5351.996942	298.293396	444.561066	517.005188
5352.000272	299.111633	444.911713	529.687866
5352.003601	302.501465	445.905304	539.389832
5352.006932	302.676788	445.262390	549.208618
5352.010265	305.540588	445.905304	560.780823
5352.013601	307.001740	446.022186	571.593201
5352.016932	307.586182	444.502655	584.100464
5352.020268	311.034485	444.502655	596.374023
5352.023606	311.326691	444.093536	609.991821
5352.026932	312.963165	444.151947	619.167725
5352.030269	313.372284	442.573944	634.129700
5352.033608	315.300995	441.814148	646.695496
5352.036929	315.651642	440.236115	658.968994
5352.040279	317.463470	438.599640	672.469849
5352.043602	316.820557	436.086487	685.620056
5352.046927	318.340149	435.151337	697.952026
5352.050263	318.690826	432.872009	713.849182
5352.053602	320.327271	430.767975	726.356506
5352.056931	320.093506	427.202820	742.019836
5352.060261	320.093506	423.579193	757.449402
5352.063598	320.210388	420.423126	770.950256
5352.066930	319.275269	416.215088	787.724121
5352.071622	318.047913	407.214508	817.998779
5352.074980	317.755676	403.298676	832.843872
5352.077886	316.352997	397.980133	850.552856
5352.081211	316.528320	391.141998	864.930420
5352.084874	314.891846	386.057281	882.639343
5352.088234	313.138489	378.751587	898.653442
5352.091151	311.151337	372.439514	913.556946
5352.094467	309.807129	365.718292	929.804810
5352.097804	307.703094	357.360626	946.052551
5352.101193	305.599060	349.587372	963.235474
5352.104517	302.501465	340.119232	979.074219
5352.107775	298.936279	331.761536	994.503784
5352.111107	296.072449	322.644073	1011.394531
5352.114448	291.513733	311.890106	1027.583862
5352.117794	287.831665	302.597321	1042.019897
5352.121161	284.792511	292.369385	1058.326172
5352.124519	280.525970	280.504974	1074.106323
5352.127858	275.850372	270.744598	1089.009888
5352.131132	272.051422	258.529510	1105.666870
5352.134437	267.083557	246.840424	1116.303955
5352.137775	261.648132	234.800705	1131.616699
5352.141139	256.621857	222.176483	1145.059082
5352.144489	250.777328	210.019867	1161.599121
5352.147847	245.108139	197.220337	1174.223267
5352.151183	239.029816	184.070129	1186.029175
5352.154564	233.652832	170.861481	1198.887207
5352.157799	226.464066	156.483917	1212.738770
5352.161101	219.684387	142.223267	1222.791382
5352.164057	213.898300	128.430145	1231.791992
5352.167796	206.475739	113.059036	1242.721191
5352.170714	198.234940	97.746353	1251.371216
5352.174012	191.747513	82.608994	1266.333130
5352.177362	182.980713	67.530090	1275.801392
5352.180731	175.090591	52.918766	1278.431396
5352.184080	165.856216	36.203392	1287.022827
5352.187373	157.498550	20.773819	1297.542969
5352.190671	148.264175	4.467564	1306.368164
5352.194013	139.380478	-11.312682	1309.232056
5352.197337	130.438339	-29.313850	1317.823608
5352.200677	120.853302	-44.801868	1322.557617
5352.204006	110.976036	-61.458794	1325.304565
5352.207364	101.507896	-78.115723	1327.174805
5352.210688	91.922852	-94.480423	1331.265991
5352.214032	82.571594	-111.312683	1334.246704
5352.217364	72.226768	-127.618927	1335.357178
5352.220676	62.291061	-143.457626	1333.954346
5352.224037	51.420219	-159.471664	1331.265991
5352.227343	41.718292	-176.888367	1332.785522
5352.230691	31.957918	-192.493286	1332.434937
5352.234003	22.372881	-207.981308	1333.895996
5352.237334	12.203390	-223.060196	1324.953857
5352.240667	1.917007	-239.074219	1323.609619
5352.243581	-8.720047	-252.925766	1315.661011
5352.246915	-18.772648	-266.134399	1307.478638
5352.250253	-28.416130	-281.447113	1301.867920
5352.253575	-37.066048	-294.772644	1297.250732
5352.256914	-46.826416	-308.039764	1290.295776
5352.260241	-55.651665	-321.365265	1283.691528
5352.263580	-64.360023	-334.047943	1271.885498
5352.266906	-72.834602	-346.496796	1262.884888
5352.270240	-81.601402	-357.367615	1251.429565
5352.273578	-89.666862	-369.465820	1238.104004
5352.276914	-97.966103	-379.635315	1228.285278
5352.280277	-105.856224	-390.506134	1214.725952
5352.283574	-113.161896	-399.798950	1204.907104
5352.286909	-120.409111	-408.916412	1192.867310
5352.290239	-128.065460	-418.092346	1183.808350
5352.293578	-135.897125	-427.443604	1165.456421
5352.296904	-142.443024	-434.340118	1153.007690
5352.300243	-148.521332	-443.808319	1136.759766
5352.303567	-154.950317	-450.354187	1122.732910
5352.306904	-160.444183	-457.192261	1109.816528
5352.310234	-166.522491	-462.919952	1095.088257
5352.313572	-172.425476	-471.511414	1079.074219
5352.316904	-177.802444	-475.602570	1061.715942
5352.320241	-182.828751	-479.401520	1047.747559
5352.323572	-188.731735	-485.304474	1033.428467
5352.326919	-194.459366	-490.623047	1018.875549
5352.330238	-198.433670	-496.116913	1001.517212
5352.333575	-203.752197	-499.915833	986.146057
5352.336931	-207.726471	-504.708374	970.073608
5352.340241	-212.168335	-508.682617	953.416748
5352.343574	-215.733505	-510.962006	935.298645
5352.346900	-218.655746	-512.656921	917.998779
5352.350234	-222.746933	-516.455872	902.160095
5352.353563	-225.610748	-515.696045	883.106873
5352.356900	-229.701920	-518.910583	866.508484
5352.360239	-233.500885	-520.722351	849.559326
5352.363572	-234.728241	-522.241943	836.292175
5352.366905	-236.656921	-522.066589	817.122070
5352.370235	-238.760971	-522.475769	801.517212
5352.373568	-241.040314	-522.534180	784.684937
5352.376897	-243.553467	-522.826416	768.904663
5352.380258	-244.313263	-523.352417	754.468689
5352.383564	-246.417297	-521.774414	737.461121
5352.386902	-247.235535	-521.482178	722.148437
5352.390233	-249.398010	-521.774414	709.582642
5352.393564	-249.456451	-519.670349	695.614258
5352.396905	-250.099350	-516.631226	680.243103
5352.400233	-251.092926	-517.741638	668.261841
5352.403560	-251.677383	-514.527161	653.299805
5352.406896	-252.378723	-514.410278	641.084717
5352.410229	-252.729385	-512.832214	626.765564
5352.413557	-252.963181	-511.312653	615.134949
5352.416898	-252.437180	-507.046173	602.686096
5352.420232	-253.898300	-505.935699	589.711243
5352.423559	-252.729385	-504.533051	577.963745
5352.426891	-251.794266	-500.675629	567.209778
5352.430242	-252.904739	-498.045563	554.819397
5352.433563	-253.372299	-496.233795	544.532959
5352.436892	-251.794266	-494.188202	533.603699
5352.440222	-251.618927	-490.097046	523.668030
5352.443554	-251.326706	-487.291656	511.219147
5352.446891	-251.326706	-484.661621	500.582123
5352.450224	-250.566925	-480.628876	490.412598
5352.453559	-249.807144	-477.063690	481.996490
5352.456902	-248.813553	-475.368774	473.054352
5352.460219	-248.521317	-473.030975	420.102875
5352.463562	-226.779663	-491.499695	-1925.484497
5352.466926	-223.097610	-485.479828	-1763.590820
5352.470219	-224.208069	-476.128571	372.820587
5352.473564	-246.300400	-461.517242	423.142029
5352.476891	-245.715942	-457.952057	414.199860
5352.480223	-244.605484	-455.380463	405.666870
5352.483552	-244.021027	-452.165985	397.659851
5352.486886	-243.202805	-449.068390	389.769745
5352.490219	-242.150772	-445.853882	381.528931
5352.493554	-241.858566	-443.223846	373.872589
5352.496884	-240.631210	-439.950897	365.982483
5352.500222	-239.520737	-436.853302	359.144379
5352.503552	-238.234940	-433.580383	351.195801
5352.506906	-237.241379	-430.365875	344.708344
5352.510216	-236.189362	-426.917603	338.396240
5352.513554	-234.786667	-424.579803	331.967255
5352.516910	-234.377548	-421.715973	325.772064
5352.520216	-233.383987	-418.910583	320.336639
5352.523552	-232.273529	-416.105225	313.206299
5352.526881	-231.572174	-414.118042	309.115143
5352.530221	-230.695511	-410.845123	303.504395
5352.533551	-229.585052	-408.624207	298.536530
5352.536882	-227.890121	-405.760376	293.627136
5352.540220	-227.305664	-403.071899	289.068390
5352.543546	-226.253647	-401.552307	284.334320
5352.546879	-225.435425	-398.396271	279.366455
5352.550220	-224.909424	-395.824677	276.151947
5352.553558	-223.857391	-393.194611	271.768555
5352.556880	-222.513138	-391.675049	268.437195
5352.560216	-221.870255	-389.337250	264.462891
5352.563549	-221.285797	-387.233185	260.313263
5352.566881	-220.292221	-384.895386	257.274109
5352.570230	-219.357101	-383.083588	253.767395
5352.573544	-218.772644	-380.044434	250.026886
5352.576878	-218.538879	-379.167725	247.455292
5352.580215	-217.954422	-376.011688	244.357697
5352.583546	-216.843964	-374.316772	240.734070
5352.586875	-216.843964	-371.394501	237.578018
5352.590205	-214.564575	-371.277618	234.305084
5352.593543	-215.382812	-368.822937	231.032150
5352.596875	-214.623016	-366.309753	228.518997
5352.600204	-213.571014	-365.257751	225.888947
5352.603557	-212.986557	-364.147308	223.492706
5352.606874	-212.577438	-361.458801	221.914658
5352.610204	-212.343658	-359.705444	218.174164
5352.613542	-211.992966	-357.133820	215.076553
5352.616874	-211.174744	-356.958496	213.147858
5352.620209	-209.538284	-354.503815	211.043839
5352.623535	-209.479828	-352.691986	209.232025
5352.626873	-209.246063	-351.815308	206.718887
5352.630265	-208.603165	-350.763306	205.082397
5352.633539	-207.901810	-348.659271	203.212158
5352.636874	-208.310928	-347.198151	200.699005
5352.640209	-208.018707	-346.555237	198.711853
5352.643543	-207.142014	-344.217407	196.315613
5352.646905	-206.499115	-343.340759	194.912918
5352.650203	-205.973114	-342.580963	193.977798
5352.653540	-205.914658	-340.769135	192.516647
5352.656869	-205.856216	-341.295166	192.633545
5352.660218	-205.388657	-339.950897	190.295731
5352.664869	-204.804199	-338.139099	188.834595
5352.668205	-204.745758	-338.022217	187.841034
5352.671567	-204.161301	-336.677979	186.905914
5352.674889	-204.570419	-336.385742	185.210983
5352.678186	-205.330215	-335.158386	186.672119
5352.681489	-204.219757	-335.216858	185.210983
5352.684875	-204.511978	-335.801270	185.737000
5352.687778	-204.511978	-334.866150	185.035660
5352.691149	-203.752197	-334.983063	183.925186
5352.694442	-204.336639	-333.989502	184.275864
5352.697720	-205.622452	-334.924622	183.808304
5352.701050	-204.687317	-333.931030	185.094086
5352.704440	-205.154892	-334.281708	184.626526
5352.707728	-204.804199	-332.528351	184.568100
5352.711106	-205.622452	-333.229706	185.094086
5352.714466	-206.265350	-334.457062	184.684982
5352.717801	-206.966675	-333.872589	185.035660
5352.721037	-206.557571	-334.457062	184.684982
5352.724380	-207.609573	-333.814148	185.269440
5352.727711	-207.609573	-333.872589	186.496780
5352.731056	-208.603165	-333.463470	186.263000
5352.734428	-208.486267	-335.275269	186.379898
5352.737783	-208.895386	-334.223267	187.256577
5352.741101	-210.239624	-335.041504	187.373474
5352.744373	-211.057846	-335.625946	187.957916
5352.747750	-210.882523	-334.924622	188.542374
5352.751029	-210.648743	-335.275269	189.126831
5352.754396	-211.466980	-335.801270	189.243713
5352.757736	-212.518997	-335.684418	191.347748
5352.761129	-213.746353	-336.561066	190.997086
5352.764461	-214.097015	-337.087097	191.464645
5352.767712	-214.856812	-338.314423	193.334900
5352.771041	-215.032150	-338.431335	194.854462
5352.773949	-216.317932	-337.905334	195.555817
5352.777310	-217.253067	-339.541779	197.192276
5352.780620	-217.662186	-339.600250	199.004089
5352.783947	-219.123306	-341.178253	199.763885
5352.787302	-218.889542	-343.165405	200.582108
5352.790643	-219.883102	-342.522522	203.329056
5352.793990	-222.104019	-344.568085	204.381073
5352.797280	-222.104019	-344.509644	206.601990
5352.800614	-223.272934	-347.490356	209.232025
5352.803946	-223.857391	-347.256592	210.810059
5352.807297	-225.143188	-349.302155	214.141434
5352.810615	-227.890121	-349.535950	217.355927
5352.813981	-228.065460	-350.646423	218.992416
5352.817300	-228.708359	-353.042664	222.732910
5352.820633	-230.637039	-355.438934	224.194031
5352.823962	-231.747498	-357.192291	227.817642
5352.827277	-233.383987	-357.659851	229.863251
5352.830616	-234.669769	-359.471680	233.194626
5352.833942	-235.312668	-360.289886	236.233795
5352.837298	-237.299820	-362.686157	239.389832
5352.840606	-239.579193	-364.614868	242.428986
5352.843951	-241.215652	-366.718872	247.455292
5352.847275	-242.326141	-367.887787	251.137329
5352.850621	-243.962585	-369.232025	253.708954
5352.853519	-244.956161	-372.388092	257.624786
5352.856865	-247.001755	-372.972534	261.540619
5352.860201	-248.988892	-375.661041	265.398010
5352.863514	-250.450027	-376.245453	270.190521
5352.866850	-252.437180	-378.174164	273.580383
5352.870179	-253.138519	-381.271790	279.074219
5352.873518	-255.534760	-383.960266	283.691406
5352.876849	-256.703674	-384.836945	287.081238
5352.880179	-259.567505	-387.700775	291.990662
5352.883517	-261.320892	-390.272369	295.205139
5352.886845	-262.840454	-392.259491	300.465240
5352.890182	-264.301605	-393.253082	305.608429
5352.893510	-266.814728	-394.129730	309.816498
5352.896846	-268.743439	-396.642914	316.303894
5352.900193	-270.789032	-400.441864	320.453522
5352.903508	-272.659302	-402.428986	327.583862
5352.906847	-275.055542	-404.883698	332.084167
5352.910177	-276.516663	-406.344818	337.110443
5352.913508	-278.679138	-408.916412	343.188782
5352.916847	-280.257172	-411.195801	350.377533
5352.920181	-283.997650	-413.475159	357.449432
5352.923528	-286.160156	-414.877838	362.358856
5352.926843	-288.147278	-418.033936	370.307434
5352.930203	-289.900635	-420.839294	378.139099
5352.933508	-292.296906	-423.527740	384.334320
5352.936844	-295.862091	-424.696686	393.568695
5352.940179	-297.790771	-426.742249	401.283447
5352.943511	-299.544128	-430.891876	410.634705
5352.946846	-301.414368	-432.645264	418.349487
5352.950178	-304.278229	-435.859711	427.057861
5352.953513	-306.616028	-438.489777	435.415527
5352.956840	-308.544708	-440.243134	445.585052
5352.960167	-311.759216	-442.580933	455.520752
5352.963511	-314.155457	-445.620087	467.677399
5352.966834	-316.610168	-446.964355	478.255981
5352.970173	-318.480438	-448.717743	486.321442
5352.973512	-320.876709	-452.341309	498.069000
5352.976835	-323.214508	-454.211548	509.173553
5352.980169	-324.967865	-455.848053	520.511963
5352.983509	-327.714813	-456.666260	531.265869
5352.986886	-329.292816	-459.763885	543.130310
5352.990168	-333.442444	-459.705444	554.468689
5352.993506	-334.786682	-462.335480	564.755066
5352.996844	-335.780243	-463.153748	578.314392
5353.000166	-339.579224	-463.270599	588.834595
5353.003541	-341.098785	-465.959106	602.043213
5353.006836	-342.852142	-466.075989	614.375183
5353.010167	-346.534210	-468.647552	625.947388
5353.013499	-347.936890	-468.822906	639.039124
5353.016858	-349.339600	-470.517822	651.254211
5353.020165	-351.151367	-470.225616	664.579712
5353.023503	-353.839874	-469.465820	677.203918
5353.026834	-355.885468	-470.926941	693.334900
5353.030165	-356.528351	-471.511414	706.718811
5353.033501	-357.521912	-469.524292	718.174133
5353.036830	-360.093536	-470.225616	733.194580
5353.040164	-360.677979	-468.822906	747.338318
5353.043501	-361.846893	-468.764496	762.651062
5353.046844	-365.119812	-468.589142	778.898865
5353.050178	-364.067810	-465.842194	790.237244
5353.053505	-364.126251	-463.504395	807.186401
5353.056829	-364.769165	-462.043274	818.291016
5353.060169	-365.821167	-460.932770	836.759766
5353.063498	-367.223877	-458.711853	852.364624
5353.066830	-367.399200	-457.484528	870.716492
5353.070166	-365.938049	-452.808899	884.743408
5353.073500	-365.762726	-448.191681	901.283447
5353.076828	-364.184692	-446.905884	915.894775
5353.080163	-363.015808	-441.528931	933.954346
5353.083495	-362.840454	-437.671570	951.371094
5353.086829	-362.256012	-432.937469	967.268250
5353.090166	-360.151978	-428.086517	982.697754
5353.093493	-358.398621	-423.177094	995.964905
5353.096824	-356.820587	-415.111633	1015.368713
5353.100155	-354.307434	-408.624207	1030.097046
5353.103496	-350.976044	-402.428986	1047.221558
5353.106824	-348.346008	-396.000000	1059.085937
5353.110160	-345.131531	-387.700775	1079.541870
5353.113493	-344.839294	-379.927521	1093.334961
5353.116823	-339.871429	-370.576263	1104.907104
5353.120189	-336.247803	-361.341919	1123.609619
5353.123489	-331.689087	-350.529510	1138.162476
5353.126857	-327.890137	-341.879608	1147.338501
5353.130162	-323.506744	-331.534790	1165.339600
5353.133495	-319.707794	-320.839264	1170.190552
5353.136820	-314.155457	-310.494476	1186.964355
5353.140154	-310.298096	-297.578033	1195.614258
5353.143491	-303.693756	-286.531830	1205.900635
5353.146825	-299.661041	-273.147858	1217.239014
5353.150153	-293.407379	-261.283447	1226.765747
5353.153491	-286.627716	-248.600830	1235.181763
5353.156817	-279.672729	-234.515488	1243.597900
5353.160152	-274.704865	-222.943314	1253.533569
5353.163489	-267.340729	-208.507309	1262.884888
5353.166825	-261.554657	-195.006439	1265.398071
5353.170174	-253.021622	-180.921097	1276.853394
5353.173487	-246.008179	-165.900650	1282.581055
5353.176819	-239.345398	-151.289307	1286.847412
5353.180155	-231.922867	-136.151962	1291.230957
5353.183482	-221.987152	-120.897720	1295.438965
5353.186883	-213.512558	-104.533020	1296.198730
5353.190156	-205.680893	-89.220337	1300.056152
5353.193485	-196.504974	-72.621857	1301.517212
5353.196824	-187.329056	-56.607834	1305.140869
5353.200148	-177.802444	-40.009354	1303.036865
5353.203482	-168.860306	-23.819988	1299.997681
5353.206814	-158.983047	-5.877264	1301.283569
5353.210147	-149.924026	10.896551	1302.569214
5353.213512	-139.520752	27.319698	1298.770264
5353.216816	-129.351257	44.970192	1287.548828
5353.220147	-119.473991	61.919346	1290.938599
5353.223478	-109.246056	78.225601	1284.392822
5353.226816	-99.368790	95.408539	1277.613159
5353.230146	-88.965515	112.533020	1271.593262
5353.233486	-79.906487	128.897705	1265.222656
5353.236814	-69.035652	145.496201	1260.546997
5353.240143	-58.866158	162.445358	1251.254272
5353.243484	-49.105789	178.459381	1240.324951
5353.246811	-39.812973	194.473389	1230.447754
5353.250168	-30.052601	209.493866	1221.505615
5353.253480	-20.467562	224.748093	1209.933472
5353.256850	-12.226768	238.774979	1199.120972
5353.261459	7.703098	267.763885	1178.197510
5353.264775	15.768557	281.966095	1167.735840
5353.268168	24.535358	295.583893	1152.247925
5353.271482	32.542374	308.909393	1138.746948
5353.274393	40.140266	320.890686	1125.947388
5353.277729	47.913498	333.865570	1113.089478
5353.281408	56.446518	344.970184	1099.004150
5353.284332	63.752190	355.315033	1085.503296
5353.287663	71.057861	367.062531	1073.755737
5353.291010	77.662186	377.524231	1058.209351
5353.294336	83.974281	387.985962	1044.357788
5353.297756	90.870842	396.402069	1027.350098
5353.301102	97.299835	405.402679	1013.673889
5353.304327	103.261253	415.279968	998.361206
5353.307676	109.807129	422.468719	984.684937
5353.310988	116.060791	429.073059	969.021606
5353.314334	121.320862	437.138519	954.234863
5353.317671	126.347168	444.035065	940.032654
5353.321063	132.483932	450.814728	922.966675
5353.324409	137.568665	457.477478	908.355347
5353.327714	141.835190	462.211578	890.997009
5353.331003	146.569260	469.517242	878.139038
